1743759067.6268616,1.827081262320033e-05
1743759067.6278374,1.827081262320033e-05
1743759067.6288135,1.827081262320033e-05
1743759067.6297896,1.827081262320033e-05
1743759067.6307657,1.827081262320033e-05
1743759067.6317415,1.827081262320033e-05
1743759067.6327176,1.827081262320033e-05
1743759067.6336937,1.827081262320033e-05
1743759067.6346695,0.0004597753834456662
1743759067.6356454,0.0004610976133065557
1743759067.6366215,0.0004335711916571289
1743759067.6375978,0.00035087172399422215
1743759067.6385736,0.00022165380577093035
1743759067.6395495,7.007818262714338e-05
1743759067.6405256,-1.658797461843188e-05
1743759067.6415017,-7.332365592205397e-05
1743759067.6424775,-0.00011118751102934412
1743759067.6434534,-0.00015686454258734495
1743759067.6444297,-0.00016095143488463977
1743759067.6454058,-0.0001399159598250341
1743759067.6463816,-9.916723956671233e-05
1743759067.6473575,-7.644892650233823e-05
1743759067.6483335,-2.47617592130215e-05
1743759067.6493096,4.74800722773956e-05
1743759067.6502855,0.00011407237618037575
1743759067.6512613,0.00019785366827491937
1743759067.6522377,0.0002664894183265469
1743759067.6532137,0.0003204604371937637
1743759067.6541896,0.00037334963162934364
1743759067.6551654,0.0004127761220267759
1743759067.6561415,0.0004387399083860606
1743759067.6571176,0.00044979855813168183
1743759067.6580935,0.00043861970567143433
1743759067.6590695,0.00039029821439165446
1743759067.6600456,0.00031937861276212684
1743759067.6610217,0.0002327124555165516
1743759067.6619976,0.00018210711265887172
1743759067.6629734,8.63055491016963e-05
1743759067.6639495,-2.4040542925263595e-05
1743759067.6649258,-6.02215600277853e-05
1743759067.6659017,-7.969439979724881e-05
1743759067.6668775,-6.623169575910121e-05
1743759067.6678536,-5.4331627011095726e-05
1743759067.6688297,-1.1659663318752843e-05
1743759067.6698055,1.947283976946351e-05
1743759067.6707814,8.149744051664358e-05
1743759067.6717575,0.00012765528293314968
1743759067.6727338,0.00015662413715809232
1743759067.6737096,0.0001745343416374137
1743759067.6746855,0.0001840303560928928
1743759067.6756616,0.00022538008992434617
1743759067.6766376,0.0002682924590459417
1743759067.6776135,0.0003089209765896372
1743759067.6785893,0.0003408948986802378
1743759067.6795657,0.00036156976559596445
1743759067.6805418,0.0003536363864306275
1743759067.6815176,0.00035351618371600113
1743759067.6824934,0.0003541171972891327
1743759067.6834695,0.0003371686145268219
1743759067.6844456,0.0003044734761484634
1743759067.6854215,0.0002565125930125626
1743759067.6863976,0.0002134800211763407
1743759067.6873736,0.00018042427465410327
1743759067.6883497,0.00012320778249197593
1743759067.6893256,0.00010890365945144408
1743759067.6903014,0.00010313392914938081
1743759067.6912775,7.536710207070136e-05
1743759067.6922536,3.2815341092984807e-05
1743759067.6932297,-3.017088137120581e-05
1743759067.6942055,-6.178419531792743e-05
1743759067.6951816,-3.894567953892702e-05
1743759067.6961577,6.49094658982117e-06
1743759067.6971335,6.442865503970644e-05
1743759067.6981094,0.0001390745408226499
1743759067.6990855,0.00021997096776616188
1743759067.7000618,0.0003033916517168266
1743759067.7010376,0.00033067766793700077
1743759067.7020135,0.0003634930090299856
1743759067.7029896,0.00039101943067941237
1743759067.7039657,0.0004195074740458497
1743759067.7049415,0.00043369139437175524
1743759067.7059174,0.0004482359228415397
1743759067.7068937,0.00044066315182008167
1743759067.7078698,0.00042611862335029723
1743759067.7088456,0.00039065882253553344
1743759067.7098215,0.0003287544245029797
1743759067.7107975,0.00028319759565960514
1743759067.7117736,0.00020903252073516696
1743759067.7127495,0.0001370310946740025
1743759067.7137253,7.969439979724881e-05
1743759067.7147017,0.00010121068571535973
1743759067.7156777,0.00015566251544108176
1743759067.7166536,0.0002132396157470881
1743759067.7176294,0.00024461252426455707
1743759067.7186055,0.00027490360835038917
1743759067.7195816,0.00029077036668106315
1743759067.7205575,0.00029846334041714755
1743759067.7215335,0.0003100028010212741
1743759067.7225096,0.00031156543631141617
1743759067.7234857,0.00032586955935194807
1743759067.7244616,0.0003283938163591007
1743759067.7254374,0.00030663712501173714
1743759067.7264135,0.0002769470544990366
1743759067.7273898,0.00033993327696322725
1743759067.7283657,0.00036048794116432756
1743759067.7293415,0.00035027071042109057
1743759067.7303176,0.000383687065087207
1743759067.7312937,0.00043224896179623937
1743759067.7322695,0.00046650673546474005
1743759067.7332454,0.0005129049833104988
1743759067.7342215,0.0005599042447293892
1743759067.7351978,0.0005978883025513056
1743759067.7361736,0.0006051004654288847
1743759067.7371495,0.0005792568817842263
1743759067.7381256,0.0005353828909456202
1743759067.7391016,0.0004597753834456662
1743759067.7400775,0.00041986808218972865
1743759067.7410533,0.0003240665186325532
1743759067.7420297,0.00021083556145456173
1743759067.7430058,8.750757624795948e-05
1743759067.7439816,-1.4905136613663428e-05
1743759067.7449574,-0.00011719764676066003
1743759067.7459335,-0.0001837899506636402
1743759067.7469096,-0.00018066468008335593
1743759067.7478855,-0.0001747747470666663
1743759067.7488616,-0.00014881096070738166
1743759067.7498376,-0.00012609264764300757
1743759067.7508137,-7.368426406593292e-05
1743759067.7517896,-2.860824608106368e-05
1743759067.7527654,1.7429393620816106e-05
1743759067.7537415,8.882980610884897e-05
1743759067.7547176,0.0002668500264704259
1743759067.7556937,0.0003996740261325072
1743759067.7566695,0.0004673481544671243
1743759067.7576456,0.00052167978147822
1743759067.7586217,0.0005894741125274634
1743759067.7595975,0.0006179621558939007
1743759067.7605734,0.0006639997955957804
1743759067.7615495,0.0007320345320742765
1743759067.7625258,0.0008201431218953676
1743759067.7635016,0.0008869758312276002
1743759067.7644775,0.0008596898150074261
1743759067.7654536,0.0007947803491092144
1743759067.7664297,0.0006523401322770277
1743759067.7674055,0.00042840247492819723
1743759067.7683814,0.0002868036770983947
1743759067.7693577,0.00020530623658175109
1743759067.7703338,0.00015902819145061867
1743759067.7713096,0.00011791886304841793
1743759067.7722855,9.459953641091224e-05
1743759067.7732615,6.442865503970644e-05
1743759067.7742376,-1.430412304053184e-05
1743759067.7752135,-0.0001299391345110497
1743759067.7761893,-0.00022237502205868823
1743759067.7771657,-0.00030807955758725296
1743759067.7781417,-0.0003074785440141214
1743759067.7791176,-0.0002864430689545157
1743759067.7800934,-0.00023355387451893581
1743759067.7810695,-0.00014532508198321844
1743759067.7820456,-7.608831835845927e-05
1743759067.7830215,-3.81042605365428e-05
1743759067.7839975,-2.2958718493626733e-05
1743759067.7849736,-1.8030407193947696e-06
1743759067.7859497,1.5746555616047655e-05
1743759067.7869256,3.221432751985322e-05
1743759067.7879014,7.164081791728551e-05
1743759067.7888775,8.762777896258579e-05
1743759067.7898538,0.00010517737529802824
1743759067.7908297,0.0001537392720070607
1743759067.7918055,0.00018679501852929812
1743759067.7927816,0.00022441846820733566
1743759067.7937577,0.00025519036315167304
1743759067.7947335,0.0002847602309497473
1743759067.7957094,0.0002985835431317738
1743759067.7966855,0.00030471388157771607
1743759067.7976618,0.0003150513150355794
1743759067.7986376,0.00033007665436386914
1743759067.7996135,0.0003539969945745064
1743759067.8005896,0.00036108895473745914
1743759067.8015656,0.000354598008147638
1743759067.8025415,0.00033151908693938495
1743759067.8035173,0.00030699773315561607
1743759067.8044937,0.00031084422002365826
1743759067.8054698,0.0003336827358026587
1743759067.8064456,0.0003622909818837224
1743759067.8074214,0.0003709455773368172
1743759067.8083975,0.0003589253058741855
1743759067.8093736,0.0003683011176150383
1743759067.8103495,0.0003762344967803753
1743759067.8113256,0.00042527720434791294
1743759067.8123016,0.00044775511198303443
1743759067.8132777,0.00044258639525410274
1743759067.8142536,0.00041361754102916013
1743759067.8152294,0.00036505564432012767
1743759067.8162055,0.0003063967195824845
1743759067.8171816,0.00025591157943943095
1743759067.8181577,0.00021804772433214078
1743759067.8191335,0.00010265311829087554
1743759067.8201096,3.606081438789539e-05
1743759067.8210857,4.9283112996790367e-05
1743759067.8220615,7.873277808023828e-05
1743759067.8230374,8.161764323126991e-05
1743759067.8240135,0.00010661980787354405
1743759067.8249898,0.00017741920678844534
1743759067.8259656,0.00027490360835038917
1743759067.8269415,0.0003751526723487384
1743759067.8279176,0.0004179448387557076
1743759067.8288937,0.00040291949942741783
1743759067.8298695,0.00037755672664126477
1743759067.8308454,0.00036842132032966456
1743759067.8318217,0.00034486158826290623
1743759067.8327978,0.0002523054980006414
1743759067.8337736,9.08732522574964e-05
1743759067.8347495,1.5626352901421335e-05
1743759067.8357255,-1.2741487750389704e-05
1743759067.8367016,-4.195074740458497e-05
1743759067.8376775,-5.144676186006409e-05
1743759067.8386533,-4.9162910282164046e-05
1743759067.8396297,-1.598696104530029e-05
1743759067.8406057,7.067919620027496e-05
1743759067.8415816,0.00019124251897047187
1743759067.8425574,0.0002774278653575419
1743759067.8435335,0.00036084854930820654
1743759067.8445096,0.00040015483699101253
1743759067.8454854,0.00039065882253553344
1743759067.8464615,0.00043236916451086575
1743759067.8474376,0.00046614612732086107
1743759067.8484137,0.00044583186854901336
1743759067.8493896,0.00040255889128353885
1743759067.8503654,0.0003915002415379176
1743759067.8513415,0.0003449817909775326
1743759067.8523178,0.0002507428627104993
1743759067.8532937,0.00018066468008335593
1743759067.8542695,0.00019112231625584557
1743759067.8552456,0.0001918435325436035
1743759067.8562217,0.00023379427994818847
1743759067.8571975,0.0002794713115061893
1743759067.8581734,0.00039462551211820186
1743759067.8591495,0.0004939129543995405
1743759067.8601258,0.0005792568817842263
1743759067.8611016,0.0006908050009574494
1743759067.8620775,0.0007245819637674448
1743759067.8630536,0.0007607629808699664
1743759067.8640296,0.0008124501481592832
1743759067.8650055,0.0008187006893198516
1743759067.8659813,0.0007897318350949091
1743759067.8669577,0.000660033106013112
1743759067.8679338,0.0004987210629845933
1743759067.8689096,0.00029629969155387377
1743759067.8698854,0.00017405353077890842
1743759067.8708615,0.00013126136437193923
1743759067.8718376,0.00016167265117239768
1743759067.8728135,0.0002293467795070147
1743759067.8737895,0.0002753844192088945
1743759067.8747656,0.0003002663811365423
1743759067.8757417,0.00041722362246794973
1743759067.8767176,0.00046398247845758734
1743759067.8776934,0.0005780548546379631
1743759067.8786695,0.0007295102750671238
1743759067.8796456,0.0008620938692999524
1743759067.8806217,0.0009804935432068758
1743759067.8815975,0.0009992451666885813
1743759067.8825736,0.0009355377279366327
1743759067.8835497,0.0009395044175193012
1743759067.8845255,0.0008488715706910575
1743759067.8855014,0.0007387658840933502
1743759067.8864775,0.000719773855182392
1743759067.8874538,0.000753430615277761
1743759067.8884296,0.0008028339309891778
1743759067.8894055,0.000837332110086931
1743759067.8903816,0.0008489917734056839
1743759067.8913577,0.0007674943328890402
1743759067.8923335,0.0006514987132746434
1743759067.8933094,0.0005004039009893617
1743759067.8942857,0.00035760307601329593
1743759067.8952618,0.0002991845567049054
1743759067.8962376,0.0002471367812717097
1743759067.8972135,7.933379165336986e-05
1743759067.8981895,1.658797461843188e-05
1743759067.8991656,-3.221432751985322e-05
1743759067.9001415,-0.00019484860040926144
1743759067.9011173,-0.0003332019249441534
1743759067.9020936,-0.0004356146378057763
1743759067.9030697,-0.0005938014102540108
1743759067.9040456,-0.0006541431729964225
1743759067.9050214,-0.0006066631007190268
1743759067.9059975,-0.0003627717927422276
1743759067.9069736,2.247790763512146e-05
1743759067.9079497,0.00023655894238459375
1743759067.9089255,0.00037755672664126477
1743759067.9099016,0.0005352626882309939
1743759067.9108777,0.0007320345320742765
1743759067.9118536,0.0008795232629207686
1743759067.9128294,0.0010616303755796403
1743759067.9138055,0.001199502889256027
1743759067.9147818,0.0012873710736478654
1743759067.9157577,0.001289775127940392
1743759067.9167335,0.0012086382955676272
1743759067.9177096,0.0010104240191488288
1743759067.9186857,0.0007399679112396134
1743759067.9196615,0.0004568905182946346
1743759067.9206374,0.0003888557818161386
1743759067.9216135,0.00026733083732893116
1743759067.9225898,5.733669487675367e-05
1743759067.9235656,-7.921358893874355e-05
1743759067.9245415,-0.00018415055880751914
1743759067.9255176,-0.00033560597923667975
1743759067.9264936,-0.0005499274194154047
1743759067.9274695,-0.0006904443928135704
1743759067.9284453,-0.0006701301340417227
1743759067.9294217,-0.0005508890411324152
1743759067.9303977,-0.00046746835718175056
1743759067.9313736,-0.0003149311123209531
1743759067.9323494,-0.0001711686656278768
1743759067.9333255,-5.733669487675367e-05
1743759067.9343016,0.0001472483254172395
1743759067.9352775,0.00023535691523833059
1743759067.9362535,0.00039198105239642293
1743759067.9372296,0.0005292525524996781
1743759067.9382057,0.0006803473647849597
1743759067.9391816,0.0008506746114104523
1743759067.9401574,0.001143969235098668
1743759067.9411335,0.0013826918263465356
1743759067.9421096,0.0014238011547487363
1743759067.9430857,0.0013361733757861506
1743759067.9440615,0.0011930119426662058
1743759067.9450376,0.001023285709613845
1743759067.9460137,0.000832403798787252
1743759067.9469895,0.0005944024238271424
1743759067.9479654,0.00039089922796478604
1743759067.9489415,0.00017741920678844534
1743759067.9499178,3.3536557380742715e-05
1743759067.9508936,-4.0868922972948106e-05
1743759067.9518695,-0.0001452048792685921
1743759067.9528456,-9.075304954287007e-05
1743759067.9538217,-1.4183920325905521e-05
1743759067.9547975,2.367993478138464e-05
1743759067.9557734,5.9981154598532666e-05
1743759067.9567497,8.173784594589621e-05
1743759067.9577258,0.00010469656443952295
1743759067.9587016,0.0001264532557868865
1743759067.9596775,0.00019773346556029307
1743759067.9606535,0.0002389629966771201
1743759067.9616296,0.00027802887893067346
1743759067.9626055,0.00030002597570728964
1743759067.9635813,0.0003821244297970648
1743759067.9645576,0.0004579723427262715
1743759067.9655337,0.0005172322810370462
1743759067.9665096,0.0005211989706197148
1743759067.9674854,0.0006611149304447489
1743759067.9684615,0.0009712379341806492
1743759067.9694376,0.001251670867403849
1743759067.9704137,0.001309127764995229
1743759067.9713895,0.00127775485647776
1743759067.9723656,0.001232438433063638
1743759067.9733417,0.0011051437582743674
1743759067.9743176,0.0010484080769707453
1743759067.9752934,0.0008965920483977057
1743759067.9762695,0.0008037955527061882
1743759067.9772458,0.0007249425719113237
1743759067.9782217,0.0005207181597612095
1743759067.9791975,0.0003323605059417692
1743759067.9801736,0.00012164514720183378
1743759067.9811497,-9.688338798881228e-05
1743759067.9821255,-0.0002908905693956895
1743759067.9831014,-0.00034341915568739047
1743759067.9840775,-0.00026985509433608386
1743759067.9850538,-0.0001706878547693715
1743759067.9860296,-7.260243963429606e-05
1743759067.9870055,-4.375378812397974e-05
1743759067.9879816,-0.00010890365945144408
1743759067.9889576,-0.00015458069100944492
1743759067.9899335,-8.10166296581383e-05
1743759067.9909093,7.668933193159087e-05
1743759067.9918857,0.0002205719813392935
1743759067.9928617,0.0003287544245029797
1743759067.9938376,0.00037851834835827533
1743759067.9948134,0.0005268484982071516
1743759067.9957895,0.0006452481721140748
1743759067.9967656,0.0006552249974280592
1743759067.9977415,0.0005431960673963309
1743759067.9987175,0.0005960852618319107
1743759067.9996936,0.0007380446678055923
1743759068.0006697,0.0007881691998047669
1743759068.0016456,0.0007515073718437399
1743759068.0026214,0.0006591916870107278
1743759068.0035975,0.0005590628257270048
1743759068.0045736,0.0004815320747930298
1743759068.0055497,0.0003658970633225119
1743759068.0065255,0.00020049812799669835
1743759068.0075016,2.6204191788537317e-05
1743759068.0084777,-8.955102239660688e-05
1743759068.0094535,-0.0002761056354966524
1743759068.0104294,-0.00042527720434791294
1743759068.0114055,-0.0005588224202977523
1743759068.0123818,-0.0006689281068954596
1743759068.0133576,-0.0006262561432031166
1743759068.0143335,-0.00043861970567143433
1743759068.0153096,-0.00037274861805621206
1743759068.0162857,-0.0002828369875157262
1743759068.0172615,-0.0001458058928417237
1743759068.0182374,-7.704994007546982e-05
1743759068.0192137,-2.7646624364053134e-05
1743759068.0201898,-1.3823312182026567e-05
1743759068.0211656,1.779000176469506e-05
1743759068.0221415,8.486311652618049e-05
1743759068.0231175,0.00029317442097358953
1743759068.0240936,0.0005446384999718468
1743759068.0250695,0.0008149744051664359
1743759068.0260453,0.0009140214420185218
1743759068.0270216,0.000943951917960475
1743759068.0279977,0.0009621025278690491
1743759068.0289736,0.0009135406311600166
1743759068.0299494,0.0009583762437156331
1743759068.0309255,0.0010409555086639136
1743759068.0319016,0.0010649960515891773
1743759068.0328777,0.0010449221982465821
1743759068.0338535,0.0009486398238309014
1743759068.0348296,0.0007781923744907826
1743759068.0358057,0.0006975363529765232
1743759068.0367815,0.0005501678248446574
1743759068.0377574,0.0002936552318320948
1743759068.0387335,0.00011731784947528635
1743759068.0397098,1.706878547693715e-05
1743759068.0406857,-1.730919090618979e-05
1743759068.0416615,4.4354801697111335e-05
1743759068.0426376,2.2838515779000416e-05
1743759068.0436137,-8.870960339422267e-05
1743759068.0445895,-0.0002355973206675832
1743759068.0455654,-0.00038356686237258063
1743759068.0465415,-0.00039017801167702814
1743759068.0475178,-0.00031216644988454775
1743759068.0484936,-0.00018691522124392442
1743759068.0494695,-0.00010722082144667563
1743759068.0504456,-3.990730125593757e-05
1743759068.0514216,3.245473294910585e-06
1743759068.0523975,3.81042605365428e-05
1743759068.0533733,4.0027503970563884e-05
1743759068.0543497,9.832582056432809e-05
1743759068.0553257,0.00018030407193947697
1743759068.0563016,0.00023535691523833059
1743759068.0572774,0.00036108895473745914
1743759068.0582535,0.0004993220765577249
1743759068.0592296,0.000568198232038605
1743759068.0602055,0.0006789049322094439
1743759068.0611815,0.0008241098114780361
1743759068.0621576,0.000894789007678311
1743759068.0631337,0.0008480301516886733
1743759068.0641096,0.0007192930443238868
1743759068.0650854,0.0005291323497850517
1743759068.0660615,0.00026636921561192065
1743759068.0670376,0.00010938447030994936
1743759068.0680137,0.00016563934075506618
1743759068.0689895,0.0002246588736365883
1743759068.0699656,0.00023211144194342
1743759068.0709417,0.00023439529352132005
1743759068.0719175,0.0003161331394672163
1743759068.0728934,0.0003406544932509851
1743759068.0738695,0.0003633728063153592
1743759068.0748458,0.0002685328644751943
1743759068.0758216,0.0001584271778774871
1743759068.0767975,6.034176274241162e-05
1743759068.0777736,0.00011984210648243902
1743759068.0787497,0.00010541778072728086
1743759068.0797255,5.529324872810627e-05
1743759068.0807014,0.00014688771727336056
1743759068.0816777,0.00027562482463814713
1743759068.0826538,0.00022525988720971987
1743759068.0836296,0.00011323095717799153
1743759068.0846055,-2.7406218934800497e-05
1743759068.0855815,-0.00022742353607299362
1743759068.0865576,-0.0003423373312557536
1743759068.0875335,-0.0005258868764901411
1743759068.0885093,-0.0006674856743199437
1743759068.0894856,-0.000537546539808894
1743759068.0904617,-0.00013811291910563936
1743759068.0914376,0.0001498927851390185
1743759068.0924134,0.0002509832681397519
1743759068.0933895,0.0004053235537199442
1743759068.0943656,0.0005827427605083895
1743759068.0953417,0.000781437847785693
1743759068.0963175,0.0008583675851465367
1743759068.0972936,0.0008158158241688201
1743759068.0982697,0.0006423633069630432
1743759068.0992455,0.00041301652745602855
1743759068.1002214,0.0002941360426906001
1743759068.1011975,0.00022838515779000416
1743759068.1021738,0.00014616650098560265
1743759068.1031497,7.260243963429606e-05
1743759068.1041255,-1.8030407193947696e-06
1743759068.1051016,4.6879058704264006e-06
1743759068.1060777,6.635189847372752e-05
1743759068.1070535,8.83489952503437e-05
1743759068.1080294,0.0001183996739069232
1743759068.1090055,0.0001991758981358089
1743759068.1099818,0.00033885145253159036
1743759068.1109576,0.0005440374863987151
1743759068.1119335,0.000662316957591012
1743759068.1129096,0.0007963429843993565
1743759068.1138856,0.0007905732540972933
1743759068.1148615,0.0006767412833461701
1743759068.1158373,0.0005565385687198522
1743759068.1168137,0.00048441693994406143
1743759068.1177897,0.00032430692406180587
1743759068.1187656,0.0001920839379728561
1743759068.1197414,8.534392738468575e-05
1743759068.1207175,-0.00011058649745621254
1743759068.1216936,-0.0002584358364465836
1743759068.1226695,-0.000328514019073727
1743759068.1236455,-0.00028632286623988943
1743759068.1246216,-0.00022670231978523568
1743759068.1255977,-6.731352019073807e-05
1743759068.1265736,-1.8391015337826648e-05
1743759068.1275494,1.430412304053184e-05
1743759068.1285255,0.00015193623128766592
1743759068.1295016,0.0002681722563313154
1743759068.1304777,0.00033163928965401133
1743759068.1314535,0.0003190180046182479
1743759068.1324296,0.0002477377948448413
1743759068.1334057,0.00013017953994030236
1743759068.1343815,5.457203244034836e-05
1743759068.1353574,-4.038811211444284e-05
1743759068.1363335,-0.0001223663634895917
1743759068.1373098,-2.9930475941953173e-05
1743759068.1382856,0.00011383197075112311
1743759068.1392615,0.00022129319762705137
1743759068.1402376,0.0002924532046858316
1743759068.1412137,0.0003339231412319113
1743759068.1421895,0.0003664980768956435
1743759068.1431653,0.00034726564255543267
1743759068.1441417,0.0002461751595546992
1743759068.1451178,0.0001230875797773496
1743759068.1460936,2.644459721778995e-06
1743759068.1470695,-3.6782030675653296e-05
1743759068.1480455,4.327297726547447e-06
1743759068.1490216,2.019405605722142e-05
1743759068.1499975,1.2621285035763386e-05
1743759068.1509736,7.404487220981187e-05
1743759068.1519496,0.00020783049358890377
1743759068.1529257,0.0002688934726190733
1743759068.1539016,0.00029906435399027913
1743759068.1548774,0.00033055746522237444
1743759068.1558535,0.0002985835431317738
1743759068.1568296,0.0001311411616573129
1743759068.1578057,-4.735986956276928e-05
1743759068.1587815,-0.00018775664024630866
1743759068.1597576,-0.00021263860217395647
1743759068.1607337,-0.00014796954170499742
1743759068.1617095,-0.00015542211001182913
1743759068.1626854,-7.22418314904171e-05
1743759068.1636615,-4.2551760977716564e-05
1743759068.1646378,-7.717014279009613e-05
1743759068.1656137,-2.0554664201100373e-05
1743759068.1665895,0.00030351185443145285
1743759068.1675656,0.0009671510418833544
1743759068.1685417,0.0014414709537988052
1743759068.1695175,0.0016149234710045818
1743759068.1704934,0.0016438923252295246
1743759068.1714694,0.0016436519198002719
1743759068.1724458,0.0016507438799632246
1743759068.1734216,0.001560111033134981
1743759068.1743975,0.001302636818405408
1743759068.1753736,0.0010064573295661603
1743759068.1763496,0.0006767412833461701
1743759068.1773255,0.00022790434693149887
1743759068.1783013,-0.0003006269892804212
1743759068.1792777,-0.0006542633757110487
1743759068.1802537,-0.0005381475533820255
1743759068.1812296,-0.0004274408532111867
1743759068.1822054,-0.00033536557380742715
1743759068.1831815,-0.00032707158649821123
1743759068.1841576,-0.00027598543278202606
1743759068.1851335,-0.00034894848056020103
1743759068.1861095,-0.00045845315358477673
1743759068.1870856,-0.0005460809325473626
1743759068.1880617,-0.0005924791803931213
1743759068.1890376,-0.0006379158065218694
1743759068.1900134,-0.0006224096563350745
1743759068.1909895,-0.0006220490481911955
1743759068.1919656,-0.0006726543910488754
1743759068.1929417,-0.0006234914807667114
1743759068.1939175,-0.0004113336894512601
1743759068.1948936,-3.4257773668500623e-05
1743759068.1958697,0.0003517131429966064
1743759068.1968455,0.0008153350133103147
1743759068.1978214,0.0011262994360485994
1743759068.1987975,0.001238809176938833
1743759068.1997738,0.001321989455460245
1743759068.2007496,0.0013010741831152657
1743759068.2017255,0.0012195767425986221
1743759068.2027016,0.0010442009819588243
1743759068.2036777,0.0007557144668556611
1743759068.2046535,0.0004829745073685456
1743759068.2056293,9.844602327895442e-05
1743759068.2066057,-0.00012320778249197593
1743759068.2075818,-0.0004054437564345705
1743759068.2085576,-0.0003893365926746439
1743759068.2095335,-0.0002851208390936262
1743759068.2105095,-0.00010710061873204931
1743759068.2114856,2.380013749601096e-05
1743759068.2124615,0.00016011001588225554
1743759068.2134376,3.3656760095369035e-05
1743759068.2144136,-4.1590139260706014e-05
1743759068.2153897,-6.226500617643271e-05
1743759068.2163656,-0.00011659663318752844
1743759068.2173414,-0.0002868036770983947
1743759068.2183175,-0.000511462550734983
1743759068.2192936,-0.0005835841795107738
1743759068.2202697,-0.0005850266120862895
1743759068.2212455,-0.0005480041759813836
1743759068.2222216,-0.0005596638393001364
1743759068.2231977,-0.0006057014790020163
1743759068.2241735,-0.0005614668800195313
1743759068.2251494,-0.00036505564432012767
1743759068.2261255,-0.00012741487750389706
1743759068.2271018,7.789135907785404e-05
1743759068.2280777,0.0002387225912478675
1743759068.2290535,0.0003536363864306275
1743759068.2300296,0.0005911569505322318
1743759068.2310057,0.0007899722405241617
1743759068.2319815,0.0009570540138547438
1743759068.2329574,0.0009252002944787693
1743759068.2339334,0.0008159360268834463
1743759068.2349098,0.0008134117698762937
1743759068.2358856,0.0008412987996695995
1743759068.2368615,0.0006141156690258585
1743759068.2378376,0.00039823159355699146
1743759068.2388136,0.0002664894183265469
1743759068.2397895,0.00016840400319147146
1743759068.2407653,0.00021564367003961443
1743759068.2417417,0.0001150339978973863
1743759068.2427177,-2.2838515779000414e-06
1743759068.2436936,-8.10166296581383e-05
1743759068.2446694,-0.00011527440332663893
1743759068.2456455,-7.019838534176969e-05
1743759068.2466216,-7.007818262714338e-05
1743759068.2475975,-9.015203596973847e-06
1743759068.2485735,1.9953650627968785e-05
1743759068.2495496,7.512669664144874e-05
1743759068.2505257,7.95741970826225e-05
1743759068.2515016,0.00010361474000788609
1743759068.2524774,0.0001944879922653825
1743759068.2534535,0.00023102961751178314
1743759068.2544296,0.0002031425877184774
1743759068.2554057,0.00011407237618037575
1743759068.2563815,7.212162877579078e-05
1743759068.2573576,7.103980434415391e-05
1743759068.2583337,0.00015470089372407122
1743759068.2593095,0.00017297170634727156
1743759068.2602854,0.0001811454909418612
1743759068.2612615,0.00013751190553250777
1743759068.2622378,0.00010145109114461237
1743759068.2632136,0.00011960170105318638
1743759068.2641895,0.00029077036668106315
1743759068.2651656,0.0002733409730602471
1743759068.2661417,4.880230213828509e-05
1743759068.2671175,-0.00019232434340210876
1743759068.2680933,-0.0002389629966771201
1743759068.2690697,-0.0001584271778774871
1743759068.2700458,-0.00011190872731710203
1743759068.2710216,-0.0001551817045825765
1743759068.2719975,-0.00016287467831866084
1743759068.2729735,-6.382764146657484e-05
1743759068.2739496,2.728601622017418e-05
1743759068.2749255,1.8030407193947694e-05
1743759068.2759016,-4.651845056038506e-05
1743759068.2768776,-0.0001230875797773496
1743759068.2778537,-0.0001283764992209076
1743759068.2788296,6.370743875194852e-06
1743759068.2798054,0.00019304555968986667
1743759068.2807815,0.0005826225577937632
1743759068.2817576,0.0010936042976702409
1743759068.2827337,0.0013265571586160453
1743759068.2837095,0.001521165353596054
1743759068.2846856,0.0016354781352056825
1743759068.2856617,0.0016096345515610238
1743759068.2866375,0.0014539720361199423
1743759068.2876134,0.001277394248333881
1743759068.2885895,0.0008588483960050419
1743759068.2895658,0.0002549499577224204
1743759068.2905416,-0.00021900934604915132
1743759068.2915175,-0.000581059922503621
1743759068.2924936,-0.0009509236754088015
1743759068.2934697,-0.0012135666068673063
1743759068.2944455,-0.0014728438623162739
1743759068.2954214,-0.001650864082677851
1743759068.2963977,-0.0013776433123322302
1743759068.2973738,-0.0011104326777179254
1743759068.2983496,-0.0009092133334334691
1743759068.2993255,-0.0007962227816847301
1743759068.3003016,-0.0005125443751666199
1743759068.3012776,-2.4521353783768863e-05
1743759068.3022535,0.0005065342394353039
1743759068.3032293,0.0009648671903054543
1743759068.3042057,0.0011122357184373203
1743759068.3051817,0.0010922820678093514
1743759068.3061576,0.0009048860357069216
1743759068.3071334,0.0007179708144629972
1743759068.3081095,0.00028043293322319984
1743759068.3090856,5.1687167289316726e-06
1743759068.3100615,-0.0002958188806953685
1743759068.3110375,-0.0005714437053335157
1743759068.3120136,-0.0007641286568795034
1743759068.3129897,-0.0008783212357745054
1743759068.3139656,-0.0006545037811403013
1743759068.3149414,-0.0003607283465935802
1743759068.3159175,-6.226500617643271e-05
1743759068.3168936,0.00018907887010719817
1743759068.3178697,0.0003767153076388805
1743759068.3188455,0.0004441490305442449
1743759068.3198216,0.00043284997536937106
1743759068.3207977,0.00037383044248784884
1743759068.3217735,0.000388975984530765
1743759068.3227494,0.000276346040925905
1743759068.3237255,0.00011190872731710203
1743759068.3247018,-3.5940611673269074e-05
1743759068.3256776,-0.0001645575163234293
1743759068.3266535,-0.00023619833424071482
1743759068.3276296,-0.000302430029999816
1743759068.3286057,-0.0003229846942009164
1743759068.3295815,-0.00044150457082246585
1743759068.3305573,-0.00031781597747198475
1743759068.3315337,3.4858787241632214e-06
1743759068.3325098,0.0002495408355642361
1743759068.3334856,0.000424916596204034
1743759068.3344615,0.00044042274639082907
1743759068.3354375,0.00047672396620797704
1743759068.3364136,0.00048730180509509307
1743759068.3373895,0.0005270889036364043
1743759068.3383656,0.0005409122158184309
1743759068.3393416,0.00040580436457844947
1743759068.3403177,0.00014364224397844997
1743759068.3412936,-0.00022501948178046724
1743759068.3422694,-0.0005430758646817046
1743759068.3432455,-0.0009089729280042165
1743759068.3442216,-0.0010992538252576779
1743759068.3451977,-0.0010379504407982557
1743759068.3461735,-0.0010083805730001815
1743759068.3471496,-0.0008610120448683156
1743759068.3481257,-0.00042527720434791294
1743759068.3491015,0.0001645575163234293
1743759068.3500774,0.0004859795752342035
1743759068.3510535,0.0005492062031276468
1743759068.3520298,0.0005440374863987151
1743759068.3530056,0.0005865892473764317
1743759068.3539815,0.000573847759626042
1743759068.3549576,0.0005067746448645566
1743759068.3559337,0.00042852267764282356
1743759068.3569095,0.0002495408355642361
1743759068.3578854,1.478493389903711e-05
1743759068.3588617,-0.00019544961398239302
1743759068.3598378,-0.00038549010580660176
1743759068.3608136,-0.00031949881547675316
1743759068.3617895,-0.00026132070159761524
1743759068.3627656,-7.284284506354868e-05
1743759068.3637416,9.616217170105438e-07
1743759068.3647175,7.572771021458032e-05
1743759068.3656933,0.00012344818792122856
1743759068.3666697,0.0001620332593162766
1743759068.3676457,7.849237265098564e-05
1743759068.3686216,5.6855884018248405e-05
1743759068.3695974,0.0001417190005444289
1743759068.3705735,0.00016227366474552926
1743759068.3715496,8.486311652618049e-05
1743759068.3725255,6.671250661760648e-05
1743759068.3735015,-0.0001853525859537823
1743759068.3744776,-0.0004348934215180184
1743759068.3754537,-0.0004815320747930298
1743759068.3764296,-0.00037034456376368563
1743759068.3774054,-0.00016023021859688186
1743759068.3783815,0.00017814042307620322
1743759068.3793578,0.00033476456023429557
1743759068.3803337,0.00036481523889087507
1743759068.3813095,0.00023860238853324117
1743759068.3822856,4.6638653275011374e-05
1743759068.3832617,-0.00020013751985281943
1743759068.3842375,-0.00029341482640284213
1743759068.3852134,-0.00028572185266675785
1743759068.3861895,-0.0002794713115061893
1743759068.3871658,-0.0001015712938592387
1743759068.3881416,-5.4091221581843085e-05
1743759068.3891175,-0.00016636055704282406
1743759068.3900936,-0.0002616813097414942
1743759068.3910697,-0.0001658797461843188
1743759068.3920455,9.243588754763851e-05
1743759068.3930213,0.00018907887010719817
1743759068.3939977,0.0001639565027502977
1743759068.3949738,0.00028464002823512096
1743759068.3959496,0.00044475004411737647
1743759068.3969254,0.0006504168888430065
1743759068.3979015,0.0006499360779845013
1743759068.3988776,0.00036974355019055405
1743759068.3998535,-3.6060814387895395e-07
1743759068.4008296,-0.0002467761731278308
1743759068.4018056,-0.0004686703843280137
1743759068.4027817,-0.0006569078354328276
1743759068.4037576,-0.000894789007678311
1743759068.4047334,-0.0009333740790733591
1743759068.4057095,-0.0007423719655321398
1743759068.4066856,-0.0005726457324797789
1743759068.4076617,-0.00048646038609270883
1743759068.4086375,-0.00039714976912535457
1743759068.4096136,-0.00022862556321925678
1743759068.4105897,-3.618101710252171e-05
1743759068.4115655,8.366108937991731e-05
1743759068.4125414,0.00020218096600146683
1743759068.4135175,0.00047624315534947184
1743759068.4144938,0.0006965747312595126
1743759068.4154696,0.0008116087291568989
1743759068.4164455,0.0009834986110725337
1743759068.4174216,0.0009270033351981643
1743759068.4183977,0.0008618534638706999
1743759068.4193735,0.0008144935943079306
1743759068.4203494,0.0006151974934574954
1743759068.4213257,0.000482373493795414
1743759068.4223018,0.0005643517451705629
1743759068.4232776,0.0005399505941014203
1743759068.4242535,0.00045881376172865566
1743759068.4252295,0.0005722851243358998
1743759068.4262056,0.0007495841284097188
1743759068.4271815,0.0006293814137834009
1743759068.4281573,0.0002862026635252631
1743759068.4291337,6.370743875194852e-06
1743759068.4301097,-0.00025002164642274135
1743759068.4310856,-0.0006652018227420436
1743759068.4320614,-0.0011074276098522674
1743759068.4330375,-0.0014405093320817945
1743759068.4340136,-0.00151215014999908
1743759068.4349895,-0.0012688598555954124
1743759068.4359655,-0.0007631670351624927
1743759068.4369416,-5.709628944750104e-05
1743759068.4379177,0.0003696233474759278
1743759068.4388936,0.0005630295153096733
1743759068.4398694,0.0004954755896896826
1743759068.4408455,0.0003512323321381011
1743759068.4418218,0.00019316576240449297
1743759068.4427977,2.956986779807422e-05
1743759068.4437735,-0.00011395217346574944
1743759068.4447496,-0.00027081671605309437
1743759068.4457257,-0.00045100058527794504
1743759068.4467015,-0.0005028079552818881
1743759068.4476774,-0.0003921012551110492
1743759068.4486535,-0.0003395726688193483
1743759068.4496298,-2.6444597217789954e-05
1743759068.4506056,0.0002985835431317738
1743759068.4515815,0.0005224009977659779
1743759068.4525576,0.0007113596651585497
1743759068.4535336,0.000773865076764235
1743759068.4545095,0.0005911569505322318
1743759068.4554853,0.00032154226162540056
1743759068.4564617,4.48356125556166e-05
1743759068.4574378,-0.00010109048300073341
1743759068.4584136,-0.00010048946942760182
1743759068.4593894,-0.00010890365945144408
1743759068.4603655,-0.0003634930090299856
1743759068.4613416,-0.0007386456813787239
1743759068.4623175,-0.00098590266536506
1743759068.4632936,-0.0009969613151106812
1743759068.4642696,-0.0007863661590853722
1743759068.4652457,-0.0005198767407588252
1743759068.4662216,-4.5917436987253465e-05
1743759068.4671974,0.0004127761220267759
1743759068.4681735,0.0006429643205361749
1743759068.4691496,0.0007259041936283342
1743759068.4701257,0.0007570366967165507
1743759068.4711015,0.0006030570192802373
1743759068.4720776,0.00045460666671673453
1743759068.4730537,0.00028259658208647356
1743759068.4740295,5.2528586291700955e-05
1743759068.4750054,-0.0002834380010888578
1743759068.4759815,-0.0004459520712636397
1743759068.4769578,-0.0004091700405879864
1743759068.4779336,-0.00054812437869601
1743759068.4789095,-0.0005519708655640521
1743759068.4798856,-0.0005720447189066473
1743759068.4808617,-0.00045845315358477673
1743759068.4818375,-0.0003817638216531859
1743759068.4828134,-0.00042876308307207616
1743759068.4837897,-0.0005577405958661154
1743759068.4847658,-0.0004372974758105448
1743759068.4857416,-0.0002508630654251256
1743759068.4867175,-2.199709677661619e-05
1743759068.4876935,0.0003419767231118746
1743759068.4886696,0.0005267282954925254
1743759068.4896455,0.0005107413344472251
1743759068.4906213,0.0004663865327501138
1743759068.4915977,0.000370464766478312
1743759068.4925737,0.0003057957060093529
1743759068.4935496,0.00019112231625584557
1743759068.4945254,5.1687167289316726e-06
1743759068.4955015,-4.4114396267858694e-05
1743759068.4964776,-1.298189317964234e-05
1743759068.4974535,9.039244139899111e-05
1743759068.4984295,0.00021468204832260387
1743759068.4994056,0.0002047052230086195
1743759068.5003817,0.00029942496213415806
1743759068.5013576,0.0005066544421499302
1743759068.5023334,0.0005590628257270048
1743759068.5033095,0.0005714437053335157
1743759068.5042858,0.00041962767676047605
1743759068.5052617,0.00010253291557624923
1743759068.5062375,-0.00017874143664933483
1743759068.5072136,-0.0005589426230123785
1743759068.5081897,-0.0007551134532825295
1743759068.5091655,-0.0007541518315655189
1743759068.5101414,-0.00047191585762292433
1743759068.5111175,-0.00028151475765483667
1743759068.5120938,-0.00014664731184410793
1743759068.5130696,-0.00013751190553250777
1743759068.5140455,-0.00018895866739257187
1743759068.5150216,-0.00019304555968986667
1743759068.5159976,-0.00012933812093791813
1743759068.5169735,-9.544095541329647e-05
1743759068.5179493,-0.00023199123922879367
1743759068.5189257,-0.0003685415230442909
1743759068.5199018,-0.0002851208390936262
1743759068.5208776,-0.0001506140014267764
1743759068.5218534,-7.140041248803287e-05
1743759068.5228295,0.00023030840122402525
1743759068.5238056,0.0006853958787992651
1743759068.5247815,0.001046364630822098
1743759068.5257576,0.0012985499261081131
1743759068.5267336,0.0013277591857623085
1743759068.5277097,0.0012307555950588696
1743759068.5286856,0.0010847092967878934
1743759068.5296614,0.0008997173189779899
1743759068.5306375,0.0005502880275592836
1743759068.5316136,7.380446678055923e-05
1743759068.5325897,-0.0002950976644076106
1743759068.5335655,-0.0008125703508739096
1743759068.5345416,-0.0011418055862353943
1743759068.5355177,-0.0012350828927854172
1743759068.5364935,-0.0011190872731710203
1743759068.5374694,-0.0009194305641767061
1743759068.5384455,-0.0008956304266806952
1743759068.5394218,-0.0009553711758499752
1743759068.5403976,-0.0009599388790057753
1743759068.5413735,-0.0009006789406950005
1743759068.5423496,-0.000644887563970196
1743759068.5433257,-0.00042840247492819723
1743759068.5443015,-0.00036890213118816986
1743759068.5452774,-0.0002850006363789999
1743759068.5462537,-0.00016359589460641875
1743759068.5472298,-0.00019136272168509823
1743759068.5482056,-0.00012056332277019693
1743759068.5491815,-7.380446678055923e-05
1743759068.5501575,-4.519622069949556e-05
1743759068.5511336,0.00015782616430435548
1743759068.5521095,0.0005332192420823465
1743759068.5530853,0.0009331336736441064
1743759068.5540617,0.0013138156708656552
1743759068.5550377,0.0014548134551223264
1743759068.5560136,0.0013728352037471775
1743759068.5569894,0.0012350828927854172
1743759068.5579655,0.001010904830007334
1743759068.5589416,0.0007811974423564405
1743759068.5599174,0.00037635469949500155
1743759068.5608935,0.0001819869099442454
1743759068.5618696,-0.00042984490750371305
1743759068.5628457,-0.0008348078530797783
1743759068.5638216,-0.0007861257536561195
1743759068.5647974,-0.0005175928891809252
1743759068.5657735,-0.00018763643753168236
1743759068.5667498,8.594494095781734e-05
1743759068.5677257,0.0001925647488313614
1743759068.5687015,0.00012068352548482324
1743759068.5696776,-7.164081791728551e-05
1743759068.5706537,-0.00025723380930032044
1743759068.5716295,-0.0004181852441849602
1743759068.5726054,-0.0005107413344472251
1743759068.5735815,-0.0003793597673606595
1743759068.5745578,-5.625487044511681e-05
1743759068.5755336,0.00015746555616047656
1743759068.5765095,0.0002293467795070147
1743759068.5774856,0.00019088191082659294
1743759068.5784616,0.00024317009168904125
1743759068.5794375,0.0003872931465259965
1743759068.5804133,0.0004429470033979817
1743759068.5813897,0.0005958448564026582
1743759068.5823658,0.0007055899348564864
1743759068.5833416,0.0006713321611879859
1743759068.5843174,0.00044102375996396065
1743759068.5852935,0.0005047311987159091
1743759068.5862696,0.000626015737773864
1743759068.5872455,0.0006527007404209065
1743759068.5882215,0.00038056179450692267
1743759068.5891976,0.00011118751102934412
1743759068.5901737,4.14699365460797e-05
1743759068.5911496,-6.899635819550651e-05
1743759068.5921254,-7.813176450710668e-05
1743759068.5931015,-2.4521353783768863e-05
1743759068.5940776,-0.00021660529175662497
1743759068.5950537,-0.0003131280716015583
1743759068.5960295,-0.0003344039520904166
1743759068.5970056,-0.00043381159708638157
1743759068.5979817,-0.0004400621382469501
1743759068.5989575,-0.0003983517962716178
1743759068.5999334,-0.00035808388687180124
1743759068.6009095,-0.0002722591486286102
1743759068.6018858,-0.0002847602309497473
1743759068.6028616,-0.00047131484404979275
1743759068.6038375,-0.0004936725489702879
1743759068.6048136,-0.00036625767146639083
1743759068.6057897,-0.00029942496213415806
1743759068.6067655,-0.00012897751279403917
1743759068.6077414,3.81042605365428e-05
1743759068.6087177,0.00011250974089023362
1743759068.6096938,0.000357242467869417
1743759068.6106696,0.0007346789917960554
1743759068.6116455,0.000881206100925537
1743759068.6126215,0.0008321633933579993
1743759068.6135976,0.000641521887960659
1743759068.6145735,0.0003808021999361754
1743759068.6155493,8.233885951902782e-05
1743759068.6165257,-0.0004511207879925713
1743759068.6175017,-0.0009215942130399798
1743759068.6184776,-0.0012186151208816115
1743759068.6194534,-0.001319705603882345
1743759068.6204295,-0.0014092566262789519
1743759068.6214056,-0.0012314768113466277
1743759068.6223817,-0.0009194305641767061
1743759068.6233575,-0.0005988499242683161
1743759068.6243336,-0.00029798252955864224
1743759068.6253097,-4.808108585052719e-06
1743759068.6262856,0.00013450683766684981
1743759068.6272614,4.9283112996790367e-05
1743759068.6282375,-1.9112231625584556e-05
1743759068.6292138,8.173784594589622e-06
1743759068.6301897,8.666615724557524e-05
1743759068.6311655,0.0001692454221938557
1743759068.6321416,0.000463862275742961
1743759068.6331177,0.00075379122342164
1743759068.6340935,0.0009021213732705165
1743759068.6350694,0.0008995971162633637
1743759068.6360455,0.0009929946255280127
1743759068.6370218,0.0011032205148403464
1743759068.6379976,0.0009963603015375497
1743759068.6389735,0.0008995971162633637
1743759068.6399496,0.0006784241213509387
1743759068.6409256,0.00040989125687574426
1743759068.6419015,-2.7406218934800497e-05
1743759068.6428773,-0.00031769577475735837
1743759068.6438537,-0.00023848218581861485
1743759068.6448298,-0.00010734102416130193
1743759068.6458056,-0.0001258522422137549
1743759068.6467814,-0.00020206076328684053
1743759068.6477575,-0.00021973056233690925
1743759068.6487336,-0.0002716581350554786
1743759068.6497095,-0.0003655364551786329
1743759068.6506855,-0.00025350752514690457
1743759068.6516616,-8.546413009931208e-05
1743759068.6526377,2.199709677661619e-05
1743759068.6536136,-6.238520889105903e-05
1743759068.6545894,4.495581527024292e-05
1743759068.6555655,6.971757448326442e-05
1743759068.6565416,-3.6902233390279616e-05
1743759068.6575177,-0.00010145109114461237
1743759068.6584935,-9.195507668913324e-05
1743759068.6594696,6.406804689582748e-05
1743759068.6604457,0.0002941360426906001
1743759068.6614215,0.0005044907932866565
1743759068.6623974,0.0005466819461204942
1743759068.6633735,0.0007253031800552026
1743759068.6643498,0.0007316739239303974
1743759068.6653256,0.0006722937829049964
1743759068.6663015,0.00040748720258321794
1743759068.6672776,0.00015145542042916064
1743759068.6682537,-0.00024461252426455707
1743759068.6692295,-0.0005309353905044464
1743759068.6702054,-0.0006671250661760647
1743759068.6711817,-0.0005561779605759732
1743759068.6721578,-0.00021155677774231963
1743759068.6731336,0.00011864007933617584
1743759068.6741095,0.0003858507139504807
1743759068.6750855,0.0005869498555203106
1743759068.6760616,0.000654383578425675
1743759068.6770375,0.0006194045884694165
1743759068.6780133,0.0005131453887397514
1743759068.6789896,0.0004026790939981652
1743759068.6799657,0.00016371609732104508
1743759068.6809416,3.4858787241632214e-06
1743759068.6819174,-0.00023427509080669372
1743759068.6828935,-0.0006514987132746434
1743759068.6838696,-0.001036988819081245
1743759068.6848457,-0.0012816013433458021
1743759068.6858215,-0.0013319662807742296
1743759068.6867976,-0.0011380793020819785
1743759068.6877737,-0.0007680953464621718
1743759068.6887496,-0.0004100114595903706
1743759068.6897254,4.8201288565153504e-05
1743759068.6907015,0.0003892163899600176
1743759068.6916778,0.0005422344456793203
1743759068.6926537,0.0005820215442206316
1743759068.6936295,0.0005869498555203106
1743759068.6946056,0.0006505370915576329
1743759068.6955817,0.0006956131095425021
1743759068.6965575,0.0004839361290855562
1743759068.6975334,0.0003582040895864275
1743759068.6985095,0.000354598008147638
1743759068.6994858,0.0003547182108622643
1743759068.7004616,0.00016840400319147146
1743759068.7014375,-0.0001103460920269599
1743759068.7024136,-0.00013931494625190252
1743759068.7033896,-0.0001129905517487389
1743759068.7043655,-0.00022345684649032512
1743759068.7053413,-0.00039462551211820186
1743759068.7063177,-0.0003579636841571749
1743759068.7072937,-0.00046806937075488214
1743759068.7082696,-0.000644887563970196
1743759068.7092454,-0.0006680866878930753
1743759068.7102215,-0.0005282909307826675
1743759068.7111976,-0.0004651845056038505
1743759068.7121735,-0.0004739593037715718
1743759068.7131495,-0.00040279929671279156
1743759068.7141256,-0.00028391881194736305
1743759068.7151017,-5.938014102540107e-05
1743759068.7160776,0.00030771894944337403
1743759068.7170534,0.000556418366005226
1743759068.7180295,0.0006345501305123326
1743759068.7190056,0.000712201084160934
1743759068.7199817,0.0007682155491767982
1743759068.7209575,0.0006029368165656109
1743759068.7219336,0.0003161331394672163
1743759068.7229097,4.9523518426043e-05
1743759068.7238855,-0.00018246772080275067
1743759068.7248614,-0.0005177130918955515
1743759068.7258375,-0.0006470512128334696
1743759068.7268138,-0.0008098056884375042
1743759068.7277896,-0.0008434624485328732
1743759068.7287655,-0.0006242126970544692
1743759068.7297416,-0.00045965518073103995
1743759068.7307177,-0.0003464242235530484
1743759068.7316935,-9.003183325511216e-05
1743759068.7326694,0.000281634960369463
1743759068.7336457,0.000581059922503621
1743759068.7346218,0.0007789135907785403
1743759068.7355976,0.0008269946766290676
1743759068.7365735,0.0006710917557587332
1743759068.7375495,0.0005409122158184309
1743759068.7385256,0.00028151475765483667
1743759068.7395015,7.476608849756978e-05
1743759068.7404773,-7.176102063191182e-05
1743759068.7414536,-0.00012933812093791813
1743759068.7424297,-0.00014820994713425007
1743759068.7434056,-0.0002753844192088945
1743759068.7443814,-0.00017513535521054529
1743759068.7453575,0.0005329788366530938
1743759068.7463336,0.0009540489459890857
1743759068.7473097,0.0009933552336718918
1743759068.7482855,0.0009921532065256286
1743759068.7492616,0.0009169063071695535
1743759068.7502377,0.0007676145356036666
1743759068.7512136,0.0005096595100155882
1743759068.7521894,0.0002560317821540573
1743759068.7531655,0.00015770596158972918
1743759068.7541418,-9.255609026226484e-05
1743759068.7551177,-0.00043441261065951315
1743759068.7560935,-0.0006420026988191643
1743759068.7570696,-0.0005189151190418147
1743759068.7580457,-0.00034834746698706945
1743759068.7590215,-0.00033043726250774806
1743759068.7599974,-0.000346664628982301
1743759068.7609735,-0.00029004915039330525
1743759068.7619498,-0.0003227442887716638
1743759068.7629256,-0.00034005347967785353
1743759068.7639015,-0.00042395497448702345
1743759068.7648776,-0.0005796174899281053
1743759068.7658536,-0.0008178592703174674
1743759068.7668295,-0.0008570453552856471
1743759068.7678053,-0.0007268658153453448
1743759068.7687817,-0.0005786558682110947
1743759068.7697577,-0.00044751470655378183
1743759068.7707336,-0.0003009875974243002
1743759068.7717094,-0.00023920340210637276
1743759068.7726855,-0.00012212595806033904
1743759068.7736616,6.49094658982117e-05
1743759068.7746375,8.618534638706998e-05
1743759068.7756135,6.719331747611174e-05
1743759068.7765896,1.5746555616047655e-05
1743759068.7775657,-6.298622246419062e-05
1743759068.7785416,6.647210118835384e-05
1743759068.7795174,0.00010457636172489663
1743759068.7804935,7.248223691966973e-05
1743759068.7814696,0.0001337856213790919
1743759068.7824457,0.00021912954876377767
1743759068.7834215,0.0003371686145268219
1743759068.7843976,0.0005091786991570829
1743759068.7853737,0.0006769816887754228
1743759068.7863495,0.0007819186586441985
1743759068.7873254,0.0006897231765258125
1743759068.7883015,0.0005105009290179724
1743759068.7892778,0.0003449817909775326
1743759068.7902536,0.0003303170597931218
1743759068.7912295,0.00017609697692755582
1743759068.7922056,8.546413009931208e-05
1743759068.7931817,-6.094277631554321e-05
1743759068.7941575,-0.00011527440332663893
1743759068.7951334,-0.00010637940244429141
1743759068.7961097,-5.08457482869325e-05
1743759068.7970858,0.00015962920502375028
1743759068.7980616,0.00021059515602530907
1743759068.7990375,0.00018282832894662962
1743759068.8000135,0.00016323528646253982
1743759068.8009896,0.00021059515602530907
1743759068.8019655,0.0002614409043122416
1743759068.8029413,0.00019833447913342466
1743759068.8039176,0.00022694272521448834
1743759068.8048937,0.0001686444086207241
1743759068.8058696,5.6014465015864176e-05
1743759068.8068454,-3.726284153415857e-06
1743759068.8078215,-0.0001599898131676292
1743759068.8087976,-0.0001525372448607975
1743759068.8097737,1.1178852460247572e-05
1743759068.8107495,8.474291381155417e-05
1743759068.8117256,1.1779866033379162e-05
1743759068.8127017,-0.00020783049358890377
1743759068.8136775,-0.0002935350291174685
1743759068.8146534,-0.00022562049535359882
1743759068.8156295,-0.0001873960321024297
1743759068.8166058,-0.0002875248933861526
1743759068.8175817,-0.0004321287590816131
1743759068.8185575,-0.0005544951225712048
1743759068.8195336,-0.0005356232963748729
1743759068.8205097,-0.00037407084791710155
1743759068.8214855,-0.0002574742147295731
1743759068.8224614,-0.00022045177862466714
1743759068.8234375,-0.00014893116342200798
1743759068.8244138,3.630121981714803e-05
1743759068.8253896,0.0003888557818161386
1743759068.8263655,0.0007075131782905076
1743759068.8273416,0.0010261705747648764
1743759068.8283176,0.0011670481563069211
1743759068.8292935,0.0010755738904762932
1743759068.8302693,0.000795741970826225
1743759068.8312457,0.0005745689759137999
1743759068.8322217,0.0003937840931158177
1743759068.8331976,0.00020759008815965114
1743759068.8341734,-0.00014015636525428675
1743759068.8351495,-0.0004011164587080231
1743759068.8361256,-0.0008879374529446108
1743759068.8371015,-0.0011955361996733584
1743759068.8380775,-0.0011682501834531843
1743759068.8390536,-0.0009735217857585492
1743759068.8400297,-0.0008420200159573575
1743759068.8410056,-0.0006332279006514431
1743759068.8419814,-0.0003915002415379176
1743759068.8429575,-0.000224178062778083
1743759068.8439336,-0.00012573203949912859
1743759068.8449097,-0.00011214913274635467
1743759068.8458855,-0.0001639565027502977
1743759068.8468616,-0.00017561616606905054
1743759068.8478377,-0.00019220414068748243
1743759068.8488135,-0.0003283938163591007
1743759068.8497894,-0.0003538767918598801
1743759068.8507655,-0.0003223836806277848
1743759068.8517418,-0.0003423373312557536
1743759068.8527176,-0.00030868057116038454
1743759068.8536935,-0.0001666009624720767
1743759068.8546696,-7.921358893874355e-05
1743759068.8556457,7.188122334653815e-05
1743759068.8566215,0.00016575954346969248
1743759068.8575974,0.00019016069453883504
1743759068.8585737,0.00016143224574314503
1743759068.8595498,0.00014712812270261318
1743759068.8605256,0.00015157562314378696
1743759068.8615015,0.00024461252426455707
1743759068.8624775,0.0003853699030919754
1743759068.8634536,0.000417343825182576
1743759068.8644295,0.0004134973383145338
1743759068.8654053,0.0005046109960012828
1743759068.8663816,0.0005895943152420896
1743759068.8673577,0.0005838245849400264
1743759068.8683336,0.0005358637018041255
1743759068.8693094,0.0004470338956952765
1743759068.8702855,0.0002646863776071522
1743759068.8712616,-9.051264411361743e-05
1743759068.8722377,-0.0006578694571498382
1743759068.8732135,-0.0008580069770026577
1743759068.8741896,-0.000847549340830168
1743759068.8751657,-0.0008315623797848677
1743759068.8761415,-0.0007120808814463077
1743759068.8771174,-0.0004911482919631353
1743759068.8780935,-0.0003375292226707009
1743759068.8790698,-0.0002599984717367258
1743759068.8800457,-0.00033019685707849546
1743759068.8810215,-0.0003287544245029797
1743759068.8819976,-0.00022153360305630403
1743759068.8829737,-0.00022105279219779877
1743759068.8839495,-0.00024232867268665702
1743759068.8849254,-0.00013318460780596032
1743759068.8859015,7.043879077102233e-05
1743759068.8868778,0.00032731199192746383
1743759068.8878536,0.0007992278495503883
1743759068.8888295,0.0011799098467719373
1743759068.8898056,0.001342423916946719
1743759068.8907816,0.001308406548707471
1743759068.8917575,0.0010657172678769351
1743759068.8927333,0.0007572771021458032
1743759068.8937097,0.000599571140556074
1743759068.8946857,0.00010589859158578614
1743759068.8956616,-0.00037815774021439635
1743759068.8966374,-0.0007200142606116447
1743759068.8976135,-0.0012140474177258114
1743759068.8985896,-0.0013248743206112767
1743759068.8995655,-0.0012933812093791814
1743759068.9005415,-0.0010788193637712039
1743759068.9015176,-0.0007165283818874814
1743759068.9024937,-0.00044186517896634483
1743759068.9034696,-0.00029990577299266336
1743759068.9044454,-0.00013931494625190252
1743759068.9054215,0.00014941197428051324
1743759068.9063976,0.00040388112114442834
1743759068.9073737,0.0005494466085568994
1743759068.9083495,0.0005142272131713883
1743759068.9093256,0.000440783354534708
1743759068.9103017,0.0002902895558225579
1743759068.9112775,0.00011443298432425472
1743759068.9122534,5.5894262301237856e-05
1743759068.9132295,4.507601798486924e-05
1743759068.9142058,-1.5866758330673972e-05
1743759068.9151816,-0.0002685328644751943
1743759068.9161575,-0.0002685328644751943
1743759068.9171336,-9.399852283778066e-05
1743759068.9181097,0.00011166832188784938
1743759068.9190855,0.00034438077740440103
1743759068.9200613,0.0004971584276944511
1743759068.9210377,0.000513746402312883
1743759068.9220138,0.00046181882959431367
1743759068.9229896,0.00028944813682017366
1743759068.9239655,8.726717081870685e-05
1743759068.9249415,-0.00014268062226143943
1743759068.9259176,-0.0004324893672254921
1743759068.9268935,-0.0006989787855520391
1743759068.9278696,-0.0010145109114461238
1743759068.9288456,-0.0011712552513188422
1743759068.9298217,-0.0010688425384572195
1743759068.9307976,-0.0009062082655678112
1743759068.9317734,-0.0007052293267126075
1743759068.9327495,-0.0006183227640377797
1743759068.9337256,-0.00045472686943136086
1743759068.9347017,-0.00021251839945933017
1743759068.9356775,9.255609026226484e-05
1743759068.9366536,0.00033404334394653766
1743759068.9376297,0.00048585937251957725
1743759068.9386055,0.00063430972508308
1743759068.9395814,0.0008417796105281047
1743759068.9405575,0.000933734687217238
1743759068.9415338,0.0008957506293953216
1743759068.9425097,0.000753430615277761
1743759068.9434855,0.00045941477530178724
1743759068.9444616,0.00017032724662549255
1743759068.9454377,-0.00019124251897047187
1743759068.9464135,-0.0005209585651904621
1743759068.9473894,-0.000641882496104538
1743759068.9483654,-0.0006902039873843178
1743759068.9493418,-0.0007489831148365872
1743759068.9503176,-0.000644887563970196
1743759068.9512935,-0.0004697522087596506
1743759068.9522696,-0.00035652125158165915
1743759068.9532456,-0.00011984210648243902
1743759068.9542215,-3.533959810013748e-05
1743759068.9551973,-3.81042605365428e-05
1743759068.9561737,-0.000106980416017423
1743759068.9571497,-0.00019965670899431417
1743759068.9581256,-0.0001834293425197612
1743759068.9591014,6.514987132746435e-05
1743759068.9600775,0.00028944813682017366
1743759068.9610536,0.00039979422884713355
1743759068.9620295,0.00040303970214204416
1743759068.9630055,0.0004083286215856021
1743759068.9639816,0.00036974355019055405
1743759068.9649577,0.00018090508551260855
1743759068.9659336,9.08732522574964e-05
1743759068.9669094,0.00010133088842998605
1743759068.9678855,0.0001544604882948186
1743759068.9688616,8.690656267482788e-05
1743759068.9698377,-0.00010445615901027033
1743759068.9708135,-0.00015902819145061867
1743759068.9717896,-0.00011876028205080214
1743759068.9727657,-5.9981154598532666e-05
1743759068.9737415,-6.95973717686381e-05
1743759068.9747174,-7.596811564383296e-05
1743759068.9756935,-0.00012128453905795484
1743759068.9766698,-9.952784771059127e-05
1743759068.9776456,-5.637507315974313e-05
1743759068.9786215,-7.813176450710668e-05
1743759068.9795976,-7.356406135130659e-05
1743759068.9805737,-0.00010445615901027033
1743759068.9815495,-0.00014087758154204466
1743759068.9825253,8.414190023842258e-07
1743759068.9835017,0.00021035475059605647
1743759068.9844778,0.00039053861982090706
1743759068.9854536,0.0004184256496142129
1743759068.9864295,0.00034377976383126934
1743759068.9874055,0.0002851208390936262
1743759068.9883816,0.000281995568513342
1743759068.9893575,0.00035231415656973797
1743759068.9903336,0.0002795915142208156
1743759068.9913096,0.00014616650098560265
1743759068.9922857,-0.00011527440332663893
1743759068.9932616,-0.0002870440825276473
1743759068.9942374,-0.00028391881194736305
1743759068.9952135,-0.00017020704391086625
1743759068.9961896,-0.00010553798344190718
1743759068.9971657,-2.860824608106368e-05
1743759068.9981415,7.789135907785404e-05
1743759068.9991176,0.00011395217346574944
1743759069.0000937,0.00012212595806033904
1743759069.0010695,0.00022922657679238836
1743759069.0020454,0.00026805205361668907
1743759069.0030215,0.00017537576063979794
1743759069.0039978,7.729034550472246e-05
1743759069.0049736,-1.0818244316368618e-06
1743759069.0059495,-2.0434461486474054e-06
1743759069.0069256,-1.0217230743237027e-05
1743759069.0079017,-8.96712251112332e-05
1743759069.0088775,-0.0001904010999680877
1743759069.0098534,-0.00024160745639889913
1743759069.0108297,-0.00029786232684401597
1743759069.0118058,-0.0003915002415379176
1743759069.0127816,-0.00044258639525410274
1743759069.0137575,-0.0005751699894869315
1743759069.0147336,-0.0006518593214185223
1743759069.0157096,-0.0006013741812754688
1743759069.0166855,-0.0005282909307826675
1743759069.0176613,-0.0005718043134773945
1743759069.0186377,-0.0006325066843636851
1743759069.0196137,-0.000659672497869233
1743759069.0205896,-0.0004656653164623558
1743759069.0215654,-0.00029846334041714755
1743759069.0225415,-0.00014592609555635002
1743759069.0235176,1.129905517487389e-05
1743759069.0244935,0.00012260676891884432
1743759069.0254695,0.00019220414068748243
1743759069.0264456,0.00025062265999587294
1743759069.0274217,0.00022117299491242507
1743759069.0283976,0.0001270542693600181
1743759069.0293734,7.801156179248037e-05
1743759069.0303495,3.7503246963411205e-05
1743759069.0313256,-0.00010914406488069672
1743759069.0323017,-7.813176450710668e-05
1743759069.0332775,-3.317594923686376e-05
1743759069.0342536,0.00012897751279403917
1743759069.0352297,0.00019328596511911927
1743759069.0362055,0.00017489494978129266
1743759069.0371814,0.00012753508021852338
1743759069.0381575,6.575088490059593e-05
1743759069.0391338,-3.1853719375974264e-05
1743759069.0401096,-0.00018943947825107713
1743759069.0410855,-0.0003430585475435115
1743759069.0420616,-0.0004917493055362668
1743759069.0430377,-0.00041710341975332335
1743759069.0440135,-0.00014484427112471316
1743759069.0449893,-1.0217230743237027e-05
1743759069.0459657,4.3633585409353426e-05
1743759069.0469418,7.969439979724881e-05
1743759069.0479176,0.0001425604195468131
1743759069.0488935,0.00018715562667317708
1743759069.0498695,0.00020963353430829854
1743759069.0508456,0.00028980874496405265
1743759069.0518215,0.0003798405782191648
1743759069.0527976,0.000349669696847959
1743759069.0537736,0.0002656479993241627
1743759069.0547497,0.00011707744404603371
1743759069.0557256,0.00010277332100550187
1743759069.0567014,0.00032995645164924286
1743759069.0576775,0.0004520824097095819
1743759069.0586536,0.0005746891786284262
1743759069.0596297,0.0006367137793756063
1743759069.0606055,0.0005016059281356249
1743759069.0615816,0.00034678483169692736
1743759069.0625577,0.00039582753926446513
1743759069.0635335,0.00040087605327877044
1743759069.0645094,0.00022634171164135673
1743759069.0654855,-0.00013522805395460772
1743759069.0664618,-0.0004887442376706089
1743759069.0674376,-0.0007529498044192558
1743759069.0684135,-0.00100777955942705
1743759069.0693896,-0.0010476868606829875
1743759069.0703657,-0.0009140214420185218
1743759069.0713415,-0.0006450077666848222
1743759069.0723174,-0.00042924389393058146
1743759069.0732937,-0.0001726110982033926
1743759069.0742698,5.192757271856936e-05
1743759069.0752456,0.00018823745110481394
1743759069.0762215,0.0003051946924362213
1743759069.0771976,0.0004181852441849602
1743759069.0781736,0.0006451279693994485
1743759069.0791495,0.0008476695435447944
1743759069.0801253,0.0008753161679088475
1743759069.0811017,0.0008141329861640515
1743759069.0820777,0.0007128020977340655
1743759069.0830536,0.0004755219390617139
1743759069.0840294,0.0002761056354966524
1743759069.0850055,6.178419531792743e-05
1743759069.0859816,-0.00020386380400623527
1743759069.0869575,-0.0004656653164623558
1743759069.0879335,-0.0006114712093040795
1743759069.0889096,-0.0006739766209097649
1743759069.0898857,-0.0007439346008222819
1743759069.0908616,-0.000855843328139384
1743759069.0918374,-0.0009160648881671693
1743759069.0928135,-0.000750425547412103
1743759069.0937896,-0.0004478753146976608
1743759069.0947657,-0.00011864007933617584
1743759069.0957415,6.466906046895906e-05
1743759069.0967176,0.0001613120430285187
1743759069.0976937,0.00030495428700696867
1743759069.0986695,0.0003983517962716178
1743759069.0996454,0.00034762625069931154
1743759069.1006215,0.0002174467107590092
1743759069.1015978,2.6685002647042588e-05
1743759069.1025736,-0.00020698907458651956
1743759069.1035495,-0.00038609111937973334
1743759069.1045256,-0.0006566674300035751
1743759069.1055017,-0.0008404573806672153
1743759069.1064775,-0.0009404660392363118
1743759069.1074533,-0.0007906934568119196
1743759069.1084297,-0.0006740968236243912
1743759069.1094058,-0.0004749209254885823
1743759069.1103816,-0.0002882461096739105
1743759069.1113575,-7.909338622411723e-05
1743759069.1123335,9.796521242044915e-05
1743759069.1133096,0.00025723380930032044
1743759069.1142855,0.00045941477530178724
1743759069.1152616,0.0005994509378414477
1743759069.1162376,0.0006120722228772111
1743759069.1172137,0.0005493264058422731
1743759069.1181896,0.0004898260621022457
1743759069.1191654,0.0003761142940657489
1743759069.1201415,0.00019508900583851407
1743759069.1211176,4.651845056038506e-05
1743759069.1220937,-0.0001210441336287022
1743759069.1230695,-0.0001625140701747819
1743759069.1240456,-0.00013546845938386035
1743759069.1250217,-0.00024906002470573085
1743759069.1259975,-0.00023595792881146217
1743759069.1269734,-0.00020374360129160897
1743759069.1279495,-0.00021155677774231963
1743759069.1289258,-0.0001947283976946351
1743759069.1299016,-0.00018871826196331922
1743759069.1308775,-0.00019508900583851407
1743759069.1318536,-0.0001938869786922509
1743759069.1328297,-0.00016984643576698727
1743759069.1338055,-0.00016636055704282406
1743759069.1347814,-0.00022562049535359882
1743759069.1357577,-0.00026312374231701003
1743759069.1367338,-0.00029016935310793157
1743759069.1377096,-0.00026937428347757856
1743759069.1386855,-0.00014232001411756048
1743759069.1396616,-0.00010722082144667563
1743759069.1406376,-0.00011214913274635467
1743759069.1416135,-1.6227366474552926e-05
1743759069.1425893,-3.0291084085832127e-05
1743759069.1435657,-6.0582168171664254e-05
1743759069.1445417,3.377696280999535e-05
1743759069.1455176,0.00026011867445135207
1743759069.1464934,0.0005927195858223739
1743759069.1474695,0.0007285486533501131
1743759069.1484456,0.0008518766385567154
1743759069.1494215,0.0008215855544708834
1743759069.1503975,0.0006768614860607965
1743759069.1513736,0.0005418738375354414
1743759069.1523497,0.00041145389216588646
1743759069.1533256,0.00025927725544896784
1743759069.1543014,3.702243610490594e-05
1743759069.1552775,-0.00017826062579082957
1743759069.1562538,-0.00041962767676047605
1743759069.1572297,-0.0006405602662436484
1743759069.1582055,-0.0006552249974280592
1743759069.1591816,-0.0006377956038072432
1743759069.1601577,-0.00038681233566749125
1743759069.1611335,-0.00010854305130756512
1743759069.1621094,0.00015974940773837658
1743759069.1630855,0.00040412152657368105
1743759069.1640618,0.000545119310830352
1743759069.1650376,0.0005094191045863356
1743759069.1660135,0.0004452308549758818
1743759069.1669896,0.00041650240618019177
1743759069.1679657,0.00033921206067546935
1743759069.1689415,0.00018499197780990335
1743759069.1699173,3.978709854131125e-05
1743759069.1708937,6.130338445942216e-06
1743759069.1718698,-2.259811034974778e-05
1743759069.1728456,-8.570453552856471e-05
1743759069.1738214,-0.00016780298961833987
1743759069.1747975,-1.2861690465016023e-05
1743759069.1757736,0.0001465271091294816
1743759069.1767495,0.00033536557380742715
1743759069.1777256,0.0003765951049242542
1743759069.1787016,0.0002367993478138464
1743759069.1796777,0.00024136705096964648
1743759069.1806536,0.0002438913079767992
1743759069.1816294,0.000305074489721595
1743759069.1826055,0.00030771894944337403
1743759069.1835816,0.00029629969155387377
1743759069.1845577,0.0002654075938949101
1743759069.1855335,0.00012801589107702864
1743759069.1865096,5.469223515497468e-05
1743759069.1874857,-0.00010193190200311763
1743759069.1884615,-9.255609026226484e-05
1743759069.1894374,-0.00016503832718193457
1743759069.1904135,-0.00037371023977322257
1743759069.1913898,-0.0005129049833104988
1743759069.1923656,-0.00046446328931609265
1743759069.1933415,-0.00040195787771040727
1743759069.1943176,-0.0002560317821540573
1743759069.1952937,-0.0002220144139148093
1743759069.1962695,-0.00026588840475341534
1743759069.1972454,-0.0002517044844275098
1743759069.1982217,-0.0002616813097414942
1743759069.1991978,-0.000334163546661164
1743759069.2001736,-0.00043825909752755535
1743759069.2011495,-0.00040580436457844947
1743759069.2021255,-0.00036457483346162236
1743759069.2031016,-0.00030495428700696867
1743759069.2040775,-0.00020759008815965114
1743759069.2050533,-4.315277455084815e-05
1743759069.2060297,3.7743652392663845e-05
1743759069.2070057,0.00011058649745621254
1743759069.2079816,0.0001478493389903711
1743759069.2089574,9.520054998404385e-05
1743759069.2099335,-1.4424325755158157e-05
1743759069.2109096,-5.8658924737643176e-05
1743759069.2118855,-5.7577100306006314e-05
1743759069.2128615,-0.00010253291557624923
1743759069.2138376,-0.00011130771374397044
1743759069.2148137,-1.9833447913342465e-05
1743759069.2157896,6.35872360373222e-05
1743759069.2167654,0.0001854727886684086
1743759069.2177415,0.0002664894183265469
1743759069.2187178,0.00024701657855708345
1743759069.2196937,0.00021816792704676714
1743759069.2206695,0.0002045850202939932
1743759069.2216456,0.00011323095717799153
1743759069.2226217,2.2958718493626733e-05
1743759069.2235975,-0.00012729467478927073
1743759069.2245734,-0.00011178852460247571
1743759069.2255495,-0.000104335956295644
1743759069.2265258,-9.411872555240697e-05
1743759069.2275016,8.378129209454364e-05
1743759069.2284775,0.00017489494978129266
1743759069.2294536,0.00025855603916121
1743759069.2304296,0.00037383044248784884
1743759069.2314055,0.0004937927516849142
1743759069.2323813,0.0006064226952897741
1743759069.2333577,0.0006489744562674908
1743759069.2343338,0.0006750584453414017
1743759069.2353096,0.0006120722228772111
1743759069.2362854,0.00042058929847748656
1743759069.2372615,0.00013390582409371823
1743759069.2382376,-0.00020157995242833524
1743759069.2392135,-0.0005013655227063723
1743759069.2401896,-0.0005431960673963309
1743759069.2411656,-0.000544758702686473
1743759069.2421417,-0.000334163546661164
1743759069.2431176,-3.245473294910585e-05
1743759069.2440934,0.00018090508551260855
1743759069.2450695,0.0002533873224322783
1743759069.2460456,0.00040580436457844947
1743759069.2470217,0.0006426037123922959
1743759069.2479975,0.0007730236577618509
1743759069.2489736,0.0007203748687555235
1743759069.2499497,0.000604860059999632
1743759069.2509255,0.00045051977441943974
1743759069.2519014,0.00017417373349353472
1743759069.2528775,1.2741487750389704e-05
1743759069.2538538,-9.556115812792279e-05
1743759069.2548296,-0.00012729467478927073
1743759069.2558055,-3.798405782191648e-05
1743759069.2567816,-0.00011888048476542847
1743759069.2577577,-0.00036301219817148027
1743759069.2587335,-0.0005204777543319568
1743759069.2597094,-0.0004815320747930298
1743759069.2606857,-0.0003043532734338371
1743759069.2616618,-0.0002000173171381931
1743759069.2626376,-0.00024124684825502015
1743759069.2636135,-0.0003078391521580003
1743759069.2645895,-0.00029221279925657897
1743759069.2655656,-0.00017573636878367687
1743759069.2665415,-3.9546693112058616e-05
1743759069.2675173,-8.29398730921594e-06
1743759069.2684937,5.264878900632727e-05
1743759069.2694697,0.00015193623128766592
1743759069.2704456,0.00017549596335442424
1743759069.2714214,0.00019016069453883504
1743759069.2723975,0.0002795915142208156
1743759069.2733736,0.0004149397708900497
1743759069.2743495,0.0005308151877898202
1743759069.2753255,0.0006454885775433276
1743759069.2763016,0.0007010222317006863
1743759069.2772777,0.0005142272131713883
1743759069.2782536,0.00040412152657368105
1743759069.2792294,0.0003802011863630437
1743759069.2802055,0.0002438913079767992
1743759069.2811818,0.00016083123217001344
1743759069.2821577,-0.000164076705464924
1743759069.2831335,-0.0005029281579965143
1743759069.2841096,-0.00060558127628739
1743759069.2850857,-0.0006147166825989901
1743759069.2860615,-0.0005853872202301686
1743759069.2870374,-0.00045015916627556075
1743759069.2880135,-0.00023860238853324117
1743759069.2889898,-0.00011431278160962839
1743759069.2899656,-4.122953111682706e-05
1743759069.2909415,-2.3559732066758324e-05
1743759069.2919176,-4.122953111682706e-05
1743759069.2928936,-5.8658924737643176e-05
1743759069.2938695,-1.706878547693715e-05
1743759069.2948453,6.623169575910121e-05
1743759069.2958217,0.0001430412304053184
1743759069.2967978,0.0002333134690896832
1743759069.2977736,0.00024172765911352543
1743759069.2987494,9.832582056432809e-05
1743759069.2997255,-1.4664731184410794e-05
1743759069.3007016,-2.8247637937184725e-05
1743759069.3016775,-3.07718949443374e-05
1743759069.3026536,-3.726284153415857e-06
1743759069.3036296,-1.057783888711598e-05
1743759069.3046057,-3.7743652392663845e-05
1743759069.3055816,-0.00012032291734094429
1743759069.3065574,-0.00018583339681228759
1743759069.3075335,-0.0001298189317964234
1743759069.3085096,-3.882547682430071e-05
1743759069.3094857,1.7549596335442423e-05
1743759069.3104615,7.596811564383296e-05
1743759069.3114376,0.00018102528822723485
1743759069.3124137,0.00028427942009124203
1743759069.3133895,0.0005185545108979357
1743759069.3143654,0.0008007904848405303
1743759069.3153415,0.0007971844034017408
1743759069.3163178,0.0006716927693318648
1743759069.3172936,0.0005344212692286098
1743759069.3182695,0.00043693686766666586
1743759069.3192456,0.0003679405094711593
1743759069.3202217,0.00036974355019055405
1743759069.3211975,0.00042335396091389187
1743759069.3221734,0.00042335396091389187
1743759069.3231497,0.00046722795175249796
1743759069.3241258,0.0004919897109655194
1743759069.3251016,0.0005072554557230619
1743759069.3260775,0.0005035291715696459
1743759069.3270535,0.0004128963247414022
1743759069.3280296,0.0002637247558901416
1743759069.3290055,3.1132503088216356e-05
1743759069.3299813,-0.00016732217875983462
1743759069.3309577,-0.00030206942185593703
1743759069.3319337,-0.000391259836108665
1743759069.3329096,-0.0004101316623049969
1743759069.3338854,-0.00044174497625171856
1743759069.3348615,-0.0004310469346499762
1743759069.3358376,-0.0003251483430641901
1743759069.3368134,-0.0002387225912478675
1743759069.3377895,-9.123386040137534e-05
1743759069.3387656,7.69297373608435e-06
1743759069.3397417,0.0001496523797097659
1743759069.3407176,0.00032466753220568485
1743759069.3416934,0.00045725112643851357
1743759069.3426695,0.00047191585762292433
1743759069.3436458,0.00037791733478514375
1743759069.3446217,0.00033512516837817455
1743759069.3455975,0.00026901367533369963
1743759069.3465736,0.0001411179869712973
1743759069.3475497,-3.329615195149008e-05
1743759069.3485255,-0.00011936129562393375
1743759069.3495014,-0.00010121068571535973
1743759069.3504775,-0.00013414622952297086
1743759069.3514538,-0.00016948582762310835
1743759069.3524296,-0.00015506150186795018
1743759069.3534055,-8.919041425272794e-05
1743759069.3543816,-8.594494095781734e-05
1743759069.3553576,-5.373061343796413e-05
1743759069.3563335,2.00738533425951e-05
1743759069.3573093,7.48862912121961e-05
1743759069.3582857,0.000255550971295552
1743759069.3592618,0.0005049716041451618
1743759069.3602376,0.0005882720853812002
1743759069.3612134,0.000714484935738834
1743759069.3621895,0.0009553711758499752
1743759069.3631656,0.0010145109114461238
1743759069.3641415,0.0010151119250192554
1743759069.3651175,0.0009815753676385125
1743759069.3660936,0.0009084921171457113
1743759069.3670697,0.0008322835960726257
1743759069.3680456,0.0006641199983104068
1743759069.3690214,0.00040219828313966
1743759069.3699975,0.00010649960515891773
1743759069.3709736,-0.00016011001588225554
1743759069.3719497,-0.0004573713291531399
1743759069.3729255,-0.0007911742676704248
1743759069.3739016,-0.0010288150344866555
1743759069.3748777,-0.0010669192950231983
1743759069.3758535,-0.0010366282109373663
1743759069.3768294,-0.0009598186762911489
1743759069.3778055,-0.000795381362682346
1743759069.3787818,-0.0005912771532468581
1743759069.3797576,-0.00039823159355699146
1743759069.3807335,-0.00020037792528207205
1743759069.3817096,-3.3416354666116395e-05
1743759069.3826857,9.339750926464906e-05
1743759069.3836615,0.00016732217875983462
1743759069.3846374,0.00029786232684401597
1743759069.3856137,0.00039089922796478604
1743759069.3865898,0.0003973901745546072
1743759069.3875656,0.00033981307424860093
1743759069.3885415,0.0003675799013272804
1743759069.3895175,0.00041241551388289697
1743759069.3904936,0.0004327297726547447
1743759069.3914695,0.0003410151013948641
1743759069.3924453,0.0002794713115061893
1743759069.3934216,0.00030471388157771607
1743759069.3943977,0.00038549010580660176
1743759069.3953736,0.0005119433615934883
1743759069.3963494,0.0005224009977659779
1743759069.3973255,0.0005837043822254001
1743759069.3983016,0.0006934494606792283
1743759069.3992777,0.0006988585828374127
1743759069.4002535,0.0007167687873167341
1743759069.4012296,0.0007057101375711128
1743759069.4022057,0.0006123126283064638
1743759069.4031816,0.0005504082302739099
1743759069.4041574,0.0003723880099123331
1743759069.4051335,6.286601974956429e-05
1743759069.4061098,-0.00031360888246006357
1743759069.4070857,-0.0006426037123922959
1743759069.4080615,-0.0007747064957666193
1743759069.4090376,-0.0007641286568795034
1743759069.4100137,-0.0006863575005162755
1743759069.4109895,-0.0005962054645465371
1743759069.4119654,-0.0005154292403176515
1743759069.4129415,-0.0004066457835808337
1743759069.4139178,-0.00026192171517074687
1743759069.4148936,-0.00011996230919706533
1743759069.4158695,2.2838515779000416e-05
1743759069.4168456,0.00018210711265887172
1743759069.4178216,0.00037839814564364895
1743759069.4187975,0.0005050918068597881
1743759069.4197733,0.000599571140556074
1743759069.4207497,0.0006802271620703334
1743759069.4217257,0.0007113596651585497
1743759069.4227016,0.0006674856743199437
1743759069.4236774,0.0004738391010569454
1743759069.4246535,0.00034786665612856425
1743759069.4256296,0.00019172332982897715
1743759069.4266055,0.00011287034903411257
1743759069.4275815,0.00014953217699513956
1743759069.4285576,0.00012453001235286542
1743759069.4295337,8.125703508739094e-05
1743759069.4305096,8.185804866052254e-05
1743759069.4314854,0.00013126136437193923
1743759069.4324615,0.00023030840122402525
1743759069.4334376,0.0003638536171738645
1743759069.4344137,0.0005117029561642356
1743759069.4353895,0.0004918695082508931
1743759069.4363656,0.00044991876084630815
1743759069.4373417,0.0003925820659695545
1743759069.4383175,0.0003970295664107283
1743759069.4392934,0.0004728774793399349
1743759069.4402695,0.00038657193023823854
1743759069.4412458,0.00016179285388702398
1743759069.4422216,5.024473471380091e-05
1743759069.4431975,-0.00021444164289335127
1743759069.4441736,-0.00047984923678826133
1743759069.4451497,-0.0007141243275949551
1743759069.4461255,-0.0009202719831790904
1743759069.4471014,-0.0009847006382187969
1743759069.4480777,-0.0007664125084574034
1743759069.4490538,-0.000519035321756441
1743759069.4500296,-0.00029341482640284213
1743759069.4510055,-0.00022513968449509357
1743759069.4519815,-0.00016888481404997674
1743759069.4529576,-3.149311123209531e-05
1743759069.4539335,2.6925408076295226e-05
1743759069.4549093,2.4401151069142546e-05
1743759069.4558856,3.1613313946721624e-05
1743759069.4568617,0.00015542211001182913
1743759069.4578376,0.000367459698612654
1743759069.4588134,0.000570842691760384
1743759069.4597895,0.0007013828398445654
1743759069.4607656,0.000732996153791287
1743759069.4617417,0.0007638882514502507
1743759069.4627175,0.0008556029227101313
1743759069.4636936,0.0008292785282069678
1743759069.4646697,0.0008367310965137994
1743759069.4656456,0.0007792741989224194
1743759069.4666214,0.0006304632382150378
1743759069.4675975,0.0004870613996658404
1743759069.4685738,0.00033981307424860093
1743759069.4695497,4.627804513113242e-05
1743759069.4705255,-0.00012164514720183378
1743759069.4715016,-0.00018463136966602442
1743759069.4724777,-0.00024449232154993074
1743759069.4734535,-0.0002676914454728101
1743759069.4744294,-0.0002956986779807422
1743759069.4754055,-0.0002154032646103618
1743759069.4763818,-0.00020578704744025637
1743759069.4773576,-0.00022369725191957775
1743759069.4783335,-0.00022189421120018295
1743759069.4793096,-0.00021516285918110915
1743759069.4802856,-0.00029593908340999484
1743759069.4812615,-0.0002989441512756528
1743759069.4822373,-0.00019677184384328254
1743759069.4832137,-0.00014207960868830783
1743759069.4841897,-9.556115812792279e-05
1743759069.4851656,4.195074740458497e-05
1743759069.4861414,0.00015662413715809232
1743759069.4871175,0.00028187536579871565
1743759069.4880936,0.00045100058527794504
1743759069.4890695,0.0005841851930839054
1743759069.4900455,0.0005803387062158631
1743759069.4910216,0.0005100201181594672
1743759069.4919977,0.00043609544866428157
1743759069.4929736,0.00033163928965401133
1743759069.4939494,0.0003358463846659324
1743759069.4949255,0.0003133684770308109
1743759069.4959016,0.0003033916517168266
1743759069.4968777,0.0002768268517844103
1743759069.4978535,0.0002575944174441994
1743759069.4988296,0.00030411286800458443
1743759069.4998057,0.00033488476294892184
1743759069.5007815,0.000334163546661164
1743759069.5017574,0.0003122866525991741
1743759069.5027335,0.0002650469857510311
1743759069.5037098,0.00019292535697524034
1743759069.5046856,2.8247637937184725e-05
1743759069.5056615,-0.000286923879813021
1743759069.5066376,-0.00048646038609270883
1743759069.5076137,-0.0005064140367206776
1743759069.5085895,-0.0005460809325473626
1743759069.5095654,-0.0005553365415735891
1743759069.5105417,-0.0004835755209416772
1743759069.5115178,-0.00044450963868812387
1743759069.5124936,-0.0003934234849719387
1743759069.5134695,-0.0003118058417406688
1743759069.5144455,-0.00018270812623200332
1743759069.5154216,-4.808108585052719e-07
1743759069.5163975,0.00023908319939174646
1743759069.5173733,0.0004060447700077021
1743759069.5183496,0.00055269208185181
1743759069.5193257,0.0006347905359415852
1743759069.5203016,0.0006639997955957804
1743759069.5212774,0.0006982575692642811
1743759069.5222535,0.0006976565556911495
1743759069.5232296,0.0006767412833461701
1743759069.5242057,0.0006094277631554321
1743759069.5251815,0.00047864720964199816
1743759069.5261576,0.0002419680645427781
1743759069.5271337,1.5746555616047655e-05
1743759069.5281096,-0.0001270542693600181
1743759069.5290854,-0.0003131280716015583
1743759069.5300615,-0.00040736699986859156
1743759069.5310378,-0.00045027936899018714
1743759069.5320137,-0.00041181450030976533
1743759069.5329895,-0.0003586849004449328
1743759069.5339656,-0.00029942496213415806
1743759069.5349417,-0.000268773269904447
1743759069.5359175,-0.00022742353607299362
1743759069.5368934,-0.00014424325755158155
1743759069.5378695,-4.639824784575874e-05
1743759069.5388458,6.142358717404848e-05
1743759069.5398216,0.0001290977155086655
1743759069.5407975,0.00028427942009124203
1743759069.5417736,0.0003935436876865651
1743759069.5427496,0.00046674714089399265
1743759069.5437255,0.0004856189670903246
1743759069.5447013,0.0005007645091332407
1743759069.5456777,0.00048429673722943505
1743759069.5466537,0.00044607227397826596
1743759069.5476296,0.00047612295263484546
1743759069.5486054,0.0004905472783900037
1743759069.5495815,0.00040953064873186534
1743759069.5505576,0.00029461685354910535
1743759069.5515335,0.000286923879813021
1743759069.5525095,0.0002494206328496098
1743759069.5534856,0.0002334336718043095
1743759069.5544617,0.0002491802274203571
1743759069.5554376,0.00023920340210637276
1743759069.5564134,0.00019172332982897715
1743759069.5573895,0.00015349886657780803
1743759069.5583656,0.0002013395469990826
1743759069.5593417,0.00020807089901815642
1743759069.5603175,0.0001524170421461712
1743759069.5612936,-4.808108585052719e-06
1743759069.5622697,-3.41375709538743e-05
1743759069.5632455,-5.3370005294085176e-05
1743759069.5642214,-0.00013534825666923405
1743759069.5651975,-0.000328153410929848
1743759069.5661738,-0.0004304459210768446
1743759069.5671496,-0.0004324893672254921
1743759069.5681255,-0.0003721476044830805
1743759069.5691016,-0.00026384495860476794
1743759069.5700777,-0.00017633738235680848
1743759069.5710535,-0.00015566251544108176
1743759069.5720294,-9.748440156194387e-05
1743759069.5730057,3.233453023447953e-05
1743759069.5739818,0.0001853525859537823
1743759069.5749576,0.00033404334394653766
1743759069.5759335,0.00039029821439165446
1743759069.5769095,0.00033079787065162704
1743759069.5778856,0.00029629969155387377
1743759069.5788615,0.00031144523359678984
1743759069.5798373,0.00035243435928436424
1743759069.5808136,0.00036000713030582236
1743759069.5817897,0.0003551990217207696
1743759069.5827656,0.00034438077740440103
1743759069.5837414,0.00034329895297276414
1743759069.5847175,0.00030387246257533183
1743759069.5856936,0.0002569934038710678
1743759069.5866697,0.00021107596688381435
1743759069.5876455,0.00017549596335442424
1743759069.5886216,0.0001049369698687756
1743759069.5895977,0.00013258359423282872
1743759069.5905735,0.00025855603916121
1743759069.5915494,0.00033921206067546935
1743759069.5925255,0.00034930908870408
1743759069.5935018,0.00031769577475735837
1743759069.5944777,0.0003663778741810172
1743759069.5954535,0.00036625767146639083
1743759069.5964296,0.00040712659443933896
1743759069.5974057,0.00039101943067941237
1743759069.5983815,0.0003683011176150383
1743759069.5993574,0.0002468963758424571
1743759069.6003335,0.00011407237618037575
1743759069.6013098,3.858507139504807e-05
1743759069.6022856,-8.882980610884897e-05
1743759069.6032615,-0.00031216644988454775
1743759069.6042376,-0.0003424575339703799
1743759069.6052136,-0.00020626785829876162
1743759069.6061895,-5.88993301668958e-05
1743759069.6071653,8.330048123603836e-05
1743759069.6081417,0.00014616650098560265
1743759069.6091177,0.00017020704391086625
1743759069.6100936,0.00021912954876377767
1743759069.6110694,0.000286923879813021
1743759069.6120455,0.00032154226162540056
1743759069.6130216,0.000331158478795506
1743759069.6139975,0.0003013482055681792
1743759069.6149735,0.0003455828045506642
1743759069.6159496,0.0003538767918598801
1743759069.6169257,0.0003161331394672163
1743759069.6179016,0.00029786232684401597
1743759069.6188774,0.00023968421296487804
1743759069.6198535,0.00022021137319541454
1743759069.6208296,0.00024449232154993074
1743759069.6218057,0.00023379427994818847
1743759069.6227815,0.0002696146889068312
1743759069.6237576,0.0003169745584696005
1743759069.6247337,0.00032803320821522174
1743759069.6257095,0.00023992461839413066
1743759069.6266854,0.000133064405091334
1743759069.6276615,0.00014027656796891308
1743759069.6286378,0.00015337866386318173
1743759069.6296136,0.00017285150363264523
1743759069.6305895,0.00021251839945933017
1743759069.6315656,0.00023151042837028842
1743759069.6325417,0.00023932360482099908
1743759069.6335175,0.0002630035396023837
1743759069.6344934,0.00028043293322319984
1743759069.6354697,0.00025927725544896784
1743759069.6364458,0.00025110347085437824
1743759069.6374216,0.0002656479993241627
1743759069.6383975,0.0002854814472375052
1743759069.6393735,0.0002674510400435575
1743759069.6403496,0.00018042427465410327
1743759069.6413255,7.536710207070136e-05
1743759069.6423013,9.303690112077012e-05
1743759069.6432776,7.103980434415391e-05
1743759069.6442537,2.2237502205868824e-05
1743759069.6452296,2.8968854224942634e-05
1743759069.6462054,4.5917436987253465e-05
1743759069.6471815,4.711946413351665e-05
1743759069.6481576,4.735986956276928e-05
1743759069.6491337,6.911656091013284e-05
1743759069.6501095,0.0001230875797773496
1743759069.6510856,0.0001619130566016503
1743759069.6520617,0.00019833447913342466
1743759069.6530375,0.00021973056233690925
1743759069.6540134,0.00025855603916121
1743759069.6549895,0.000334163546661164
1743759069.6559658,0.0003892163899600176
1743759069.6569417,0.00041121348673663375
1743759069.6579175,0.00045448646400210826
1743759069.6588936,0.0005337000529408518
1743759069.6598697,0.000592358977678495
1743759069.6608455,0.0006947716905401179
1743759069.6618214,0.0007628064270186139
1743759069.6627975,0.0006995797991251706
1743759069.6637738,0.0006089469522969268
1743759069.6647496,0.0005274495117802832
1743759069.6657255,0.00032647057292507965
1743759069.6667016,4.074872025832179e-05
1743759069.6676776,-5.6855884018248405e-05
1743759069.6686535,-0.00011275014631948626
1743759069.6696293,-0.00013294420237670767
1743759069.6706057,-2.5242570071526774e-06
1743759069.6715817,0.0001271744720746444
1743759069.6725576,0.0001798232610809717
1743759069.6735334,0.00017958285565171904
1743759069.6745095,0.0001865546131000455
1743759069.6754856,0.00020109914156983
1743759069.6764615,0.00021372042660559336
1743759069.6774375,0.0002240578600634567
1743759069.6784136,0.00023571752338220954
1743759069.6793897,0.00022237502205868823
1743759069.6803656,0.00020927292616441958
1743759069.6813414,0.00020434461486474055
1743759069.6823175,0.00020951333159367224
1743759069.6832936,0.00022357704920495142
1743759069.6842697,0.00022550029263897252
1743759069.6852455,0.00023403468537744107
1743759069.6862216,0.00023728015867235168
1743759069.6871977,0.0002387225912478675
1743759069.6881735,0.00024557414598156763
1743759069.6891494,0.0002471367812717097
1743759069.6901255,0.00024449232154993074
1743759069.6911018,0.00024256907811590967
1743759069.6920776,0.00024304988897441495
1743759069.6930535,0.00025038225456662034
1743759069.6940296,0.00025038225456662034
1743759069.6950057,0.0002456943486961939
1743759069.6959815,0.0002440115106914255
1743759069.6969573,0.00022886596864850944
1743759069.6979337,0.00024100644282576755
1743759069.6989098,0.00024593475412544656
1743759069.6998856,0.00026011867445135207
1743759069.7008615,0.00026576820203878907
1743759069.7018375,0.0002795915142208156
1743759069.7028136,0.000281274352225584
1743759069.7037895,0.00027658644635515764
1743759069.7047656,0.0002744227974918839
1743759069.7057416,0.00027358137848949973
1743759069.7067177,0.0002675712427581838
1743759069.7076936,0.0002569934038710678
1743759069.7086694,0.00024449232154993074
1743759069.7096455,0.000257834822873452
1743759069.7106216,0.00026011867445135207
1743759069.7115977,0.0002672106346143049
1743759069.7125735,0.0002705763106238417
1743759069.7135496,0.00026312374231701003
1743759069.7145257,0.00025855603916121
1743759069.7155015,0.00025771462015882575
1743759069.7164774,0.0002603590798806047
1743759069.7174535,0.000273701581204126
1743759069.7184298,0.0002834380010888578
1743759069.7194057,0.0002886067178177895
1743759069.7203815,0.0002989441512756528
1743759069.7213576,0.0003291150326468586
1743759069.7223337,0.00034918888598945374
1743759069.7233095,0.000375393077777991
1743759069.7242854,0.0003880143628137544
1743759069.7252614,0.0004031599048566705
1743759069.7262378,0.00042070950119211294
1743759069.7272136,0.00043200855636698677
1743759069.7281895,0.0004511207879925713
1743759069.7291656,0.0004571309237238873
1743759069.7301416,0.0004734784929130665
1743759069.7311175,0.0004809310612198982
1743759069.7320933,0.0004528036259973398
1743759069.7330697,0.0004100114595903706
1743759069.7340457,0.0003767153076388805
1743759069.7350216,0.0003739506452024752
1743759069.7359974,0.00037743652392663844
1743759069.7369735,0.0003755132804926173
1743759069.7379496,0.0003756334832072437
1743759069.7389255,0.00035976672487656965
1743759069.7399015,0.00033921206067546935
1743759069.7408776,0.00030194921914131076
1743759069.7418537,0.00025050245728124666
1743759069.7428296,0.00021095576416918805
1743759069.7438054,0.0002547095522931678
1743759069.7447815,0.0002685328644751943
1743759069.7457576,0.00028427942009124203
1743759069.7467337,0.000297141110556258
1743759069.7477095,0.0003048340842923424
1743759069.7486856,0.00031949881547675316
1743759069.7496617,0.00031949881547675316
1743759069.7506375,0.00030663712501173714
1743759069.7516134,0.00027730766264291555
1743759069.7525895,0.00026132070159761524
1743759069.7535658,0.0002712975269115997
1743759069.7545416,0.00027177833777010493
1743759069.7555175,0.00028187536579871565
1743759069.7564936,0.00030856036844575826
1743759069.7574697,0.0003406544932509851
1743759069.7584455,0.0003547182108622643
1743759069.7594213,0.00036096875202283287
1743759069.7603977,0.00036493544160550134
1743759069.7613738,0.0003620505764544697
1743759069.7623496,0.00034438077740440103
1743759069.7633255,0.0003317594923686376
1743759069.7643015,0.00031949881547675316
1743759069.7652776,0.00031781597747198475
1743759069.7662535,0.00034053429053635884
1743759069.7672296,0.0003423373312557536
1743759069.7682056,0.00037010415833443303
1743759069.7691817,0.00040328010757129676
1743759069.7701576,0.00041686301432407075
1743759069.7711334,0.0004366964622374132
1743759069.7721095,0.00045460666671673453
1743759069.7730856,0.00048405633180018245
1743759069.7740617,0.0004954755896896826
1743759069.7750375,0.0005121837670227408
1743759069.7760136,0.0004993220765577249
1743759069.7769897,0.00048814322409747725
1743759069.7779655,0.0004857391698049509
1743759069.7789414,0.00046133801873580836
1743759069.7799175,0.0004113336894512601
1743759069.7808938,0.0004009962559933967
1743759069.7818696,0.0004500389635609345
1743759069.7828455,0.0004643430866014663
1743759069.7838216,0.00045941477530178724
1743759069.7847977,0.00045460666671673453
1743759069.7857735,0.0004733582901984402
1743759069.7867494,0.000495595792404309
1743759069.7877257,0.0005358637018041255
1743759069.7887018,0.0005805791116451158
1743759069.7896776,0.0006012539785608424
1743759069.7906535,0.0006046196545703794
1743759069.7916296,0.0005992105324121951
1743759069.7926056,0.0005815407333621263
1743759069.7935815,0.0005722851243358998
1743759069.7945573,0.0005660345831753314
1743759069.7955337,0.0005415132293915625
1743759069.7965097,0.0004933119408264089
1743759069.7974856,0.00047996943950288765
1743759069.7984614,0.00046590572189160847
1743759069.7994375,0.00040436193200293365
1743759069.8004136,0.0003782779429290226
1743759069.8013895,0.0003669788877541488
1743759069.8023655,0.000334163546661164
1743759069.8033416,0.0003438999665458957
1743759069.8043177,0.00035976672487656965
1743759069.8052936,0.0003664980768956435
1743759069.8062694,0.00039474571483282824
1743759069.8072455,0.0004159013926070602
1743759069.8082216,0.0003917406469671702
1743759069.8091977,0.0003975103772692335
1743759069.8101735,0.0004610976133065557
1743759069.8111496,0.0005189151190418147
1743759069.8121257,0.0005594234338708839
1743759069.8131015,0.0005859882338033001
1743759069.8140774,0.0006189237776109113
1743759069.8150535,0.000626015737773864
1743759069.8160298,0.0006212076291888113
1743759069.8170056,0.0005803387062158631
1743759069.8179815,0.000519035321756441
1743759069.8189576,0.0005113423480203567
1743759069.8199337,0.000516390862034662
1743759069.8209095,0.0004893452512437405
1743759069.8218853,0.000513746402312883
1743759069.8228617,0.0005496870139861521
1743759069.8238378,0.0005189151190418147
1743759069.8248136,0.0005484849868398889
1743759069.8257895,0.0005940418156832635
1743759069.8267655,0.0006302228327857852
1743759069.8277416,0.0006364733739463536
1743759069.8287175,0.0006117116147333321
1743759069.8296936,0.0005740881650552946
1743759069.8306696,0.0004983604548407142
1743759069.8316457,0.00041445896003154437
1743759069.8326216,0.0003739506452024752
1743759069.8335974,0.0002858420553813841
1743759069.8345735,0.00019028089725346134
1743759069.8355496,9.291669840614379e-05
1743759069.8365257,5.288919443557991e-05
1743759069.8375015,6.851554733700125e-05
1743759069.8384776,0.00012116433634332851
1743759069.8394537,0.00018162630180036646
1743759069.8404295,0.00024797820027409396
1743759069.8414054,0.00029906435399027913
1743759069.8423815,0.0003377696280999535
1743759069.8433578,0.00037371023977322257
1743759069.8443336,0.00040255889128353885
1743759069.8453095,0.00042876308307207616
1743759069.8462856,0.0004532844368558451
1743759069.8472617,0.0004728774793399349
1743759069.8482375,0.00048020984493214025
1743759069.8492134,0.0004826138992246667
1743759069.8501897,0.0004954755896896826
1743759069.8511658,0.00048730180509509307
1743759069.8521416,0.0004739593037715718
1743759069.8531175,0.00044559146311976076
1743759069.8540936,0.00042924389393058146
1743759069.8550696,0.00040087605327877044
1743759069.8560455,0.00039089922796478604
1743759069.8570213,0.00039330328225731237
1743759069.8579977,0.0003917406469671702
1743759069.8589737,0.00038561030852122803
1743759069.8599496,0.00039931341798862835
1743759069.8609254,0.0004217913256237497
1743759069.8619015,0.000438138894812929
1743759069.8628776,0.00045520768028986617
1743759069.8638535,0.0004681895734695085
1743759069.8648295,0.0004815320747930298
1743759069.8658056,0.0004919897109655194
1743759069.8667817,0.0005085776855839513
1743759069.8677576,0.0005224009977659779
1743759069.8687334,0.0005278101199241622
1743759069.8697095,0.0005302141742166886
1743759069.8706856,0.0005226414031952305
1743759069.8716617,0.0005195161326149463
1743759069.8726375,0.0004989614684138459
1743759069.8736136,0.0004692713979011454
1743759069.8745897,0.0004478753146976608
1743759069.8755655,0.0004372974758105448
1743759069.8765414,0.000456650112865382
1743759069.8775175,0.0004648238974599716
1743759069.8784938,0.0004693916006157717
1743759069.8794696,0.0004734784929130665
1743759069.8804455,0.00046674714089399265
1743759069.8814216,0.0004454712604051344
1743759069.8823977,0.0004142185546022917
1743759069.8833735,0.00042720044778193407
1743759069.8843493,0.000430566123791471
1743759069.8853257,0.0004227529473407603
1743759069.8863018,0.00043994193553232376
1743759069.8872776,0.000448716733700045
1743759069.8882535,0.00042876308307207616
1743759069.8892295,0.00042888328578670254
1743759069.8902056,0.00044919754455855025
1743759069.8911815,0.00045881376172865566
1743759069.8921576,0.00047864720964199816
1743759069.8931336,0.0005151888348883988
1743759069.8941097,0.0005814205306475
1743759069.8950856,0.0006325066843636851
1743759069.8960614,0.0006522199295624013
1743759069.8970375,0.0006822706082189808
1743759069.8980136,0.0006900837846696915
1743759069.8989897,0.0006840736489383756
1743759069.8999655,0.0007037868941370917
1743759069.9009416,0.0007343183836521764
1743759069.9019177,0.0007341981809375501
1743759069.9028935,0.0007245819637674448
1743759069.9038694,0.0007212162877579079
1743759069.9048455,0.0006964545285448863
1743759069.9058218,0.0006254147242007324
1743759069.9067976,0.0005727659351944051
1743759069.9077735,0.0005018463335648776
1743759069.9087496,0.0004059245672930758
1743759069.9097257,0.00036024753573507496
1743759069.9107015,0.00034281814211425883
1743759069.9116774,0.0003414959122533694
1743759069.9126537,0.0003376494253853272
1743759069.9136298,0.0003693829420466751
1743759069.9146056,0.00035952631944731705
1743759069.9155815,0.00033572618195130613
1743759069.9165576,0.0003506313185649695
1743759069.9175336,0.0004213105147652445
1743759069.9185095,0.0004763633580640981
1743759069.9194853,0.0004904270756753773
1743759069.9204617,0.0004877826159535984
1743759069.9214377,0.00045616930200687673
1743759069.9224136,0.00039582753926446513
1743759069.9233894,0.000320941248052269
1743759069.9243655,0.000302430029999816
1743759069.9253416,0.00028007232507932085
1743759069.9263175,0.0002527863088591467
1743759069.9272935,0.00021420123746409861
1743759069.9282696,0.000177299004073819
1743759069.9292457,0.00019677184384328254
1743759069.9302216,0.00021035475059605647
1743759069.9311974,0.00022021137319541454
1743759069.9321735,0.0002513438762836309
1743759069.9331498,0.00027346117577487335
1743759069.9341257,0.0002923330019712053
1743759069.9351015,0.00031156543631141617
1743759069.9360776,0.0003376494253853272
1743759069.9370537,0.0003452221964067852
1743759069.9380295,0.00035760307601329593
1743759069.9390054,0.0003699839556198067
1743759069.9399815,0.0003756334832072437
1743759069.9409578,0.0003945053094035756
1743759069.9419336,0.0003924618632549282
1743759069.9429095,0.00039775078269848615
1743759069.9438856,0.00040219828313966
1743759069.9448617,0.0004040013238590547
1743759069.9458375,0.00040688618901008636
1743759069.9468133,0.00040784781072709687
1743759069.9477897,0.00040328010757129676
1743759069.9487658,0.00040388112114442834
1743759069.9497416,0.0004026790939981652
1743759069.9507174,0.0004083286215856021
1743759069.9516935,0.0004054437564345705
1743759069.9526696,0.00040676598629546
1743759069.9536455,0.0004214307174798708
1743759069.9546216,0.00042479639348940774
1743759069.9555976,0.00043284997536937106
1743759069.9565737,0.00043297017808399733
1743759069.9575496,0.00043284997536937106
1743759069.9585254,0.00043309038079862366
1743759069.9595015,0.00043717727309591846
1743759069.9604776,0.00044150457082246585
1743759069.9614537,0.00044583186854901336
1743759069.9624295,0.00045448646400210826
1743759069.9634056,0.0004528036259973398
1743759069.9643817,0.0004746805200593297
1743759069.9653575,0.0005136261995982568
1743759069.9663334,0.0005555769470028416
1743759069.9673095,0.0005800983007866105
1743759069.9682858,0.0005940418156832635
1743759069.9692616,0.0006099085740139373
1743759069.9702375,0.0006194045884694165
1743759069.9712136,0.0006470512128334696
1743759069.9721897,0.0006578694571498382
1743759069.9731655,0.0006621967548763857
1743759069.9741414,0.0006690483096100857
1743759069.9751177,0.000649455267125996
1743759069.9760938,0.0006019751948486004
1743759069.9770696,0.0005624285017365418
1743759069.9780455,0.00051939592990032
1743759069.9790215,0.00047191585762292433
1743759069.9799976,0.0004265994342088025
1743759069.9809735,0.00039053861982090706
1743759069.9819493,0.0004026790939981652
1743759069.9829257,0.0003981113908423651
1743759069.9839017,0.00038296584879944905
1743759069.9848776,0.00037491226691948573
1743759069.9858534,0.00036301219817148027
1743759069.9868295,0.00034534239912141154
1743759069.9878056,0.00032190286976927954
1743759069.9887815,0.0003063967195824845
1743759069.9897575,0.0003074785440141214
1743759069.9907336,0.00031457050417707413
1743759069.9917097,0.00033055746522237444
1743759069.9926856,0.00034774645341393787
1743759069.9936614,0.00036217077916909603
1743759069.9946375,0.000388254768243007
1743759069.9956138,0.00041626200075093917
1743759069.9965897,0.00043825909752755535
1743759069.9975655,0.00045941477530178724
1743759069.9985416,0.0004854987643756983
1743759069.9995177,0.0005205979570465832
1743759070.0004935,0.0005599042447293892
1743759070.0014694,0.0006368339820902327
1743759070.0024455,0.0007397275058103609
1743759070.0034218,0.0008238694060487833
1743759070.0043976,0.000886495020369095
1743759070.0053735,0.0009197911723205851
1743759070.0063496,0.0009377013767999065
1743759070.0073256,0.0009346963089342486
1743759070.0083015,0.0009082517117164586
1743759070.0092773,0.0008808454927816581
1743759070.0102537,0.0008183400811759728
1743759070.0112298,0.0007781923744907826
1743759070.0122056,0.0007272264234892237
1743759070.0131814,0.0006257753323446113
1743759070.0141575,0.00048489775080256674
1743759070.0151336,0.0003616899683105907
1743759070.0161095,0.0002860824608106368
1743759070.0170856,0.00020386380400623527
1743759070.0180616,0.0001177986603337916
1743759070.0190377,0.00011948149833856005
1743759070.0200136,0.0001613120430285187
1743759070.0209894,0.00022501948178046724
1743759070.0219655,0.00027562482463814713
1743759070.0229416,0.00031481090960632673
1743759070.0239177,0.0003441403719751483
1743759070.0248935,0.000373109226200091
1743759070.0258696,0.00040676598629546
1743759070.0268457,0.0004297247047890867
1743759070.0278215,0.00045785214001164515
1743759070.0287974,0.00047095423590591377
1743759070.0297735,0.0005028079552818881
1743759070.0307498,0.0005230020113391095
1743759070.0317256,0.0005355030936602465
1743759070.0327015,0.0005428354592524519
1743759070.0336776,0.0005369455262357624
1743759070.0346537,0.0005404314049599256
1743759070.0356295,0.0005600244474440154
1743759070.0366054,0.0005798578953573578
1743759070.0375817,0.0005864690446618054
1743759070.0385578,0.0005750497867723052
1743759070.0395336,0.0005517304601347995
1743759070.0405095,0.0005469223515497467
1743759070.0414855,0.0005219201869074726
1743759070.0424616,0.0005046109960012828
1743759070.0434375,0.0005306949850751938
1743759070.0444133,0.0005502880275592836
1743759070.0453897,0.0005566587714344785
1743759070.0463657,0.0005589426230123785
1743759070.0473416,0.0005629093125950471
1743759070.0483174,0.0005649527587436945
1743759070.0492935,0.0005608658664463997
1743759070.0502696,0.0005776942464940842
1743759070.0512455,0.0005803387062158631
1743759070.0522215,0.0005694002591848682
1743759070.0531976,0.0005619476908780365
1743759070.0541737,0.0005537739062834469
1743759070.0551496,0.0005294929579289306
1743759070.0561254,0.000508818091013204
1743759070.0571015,0.0005072554557230619
1743759070.0580778,0.0005278101199241622
1743759070.0590537,0.0005522112709933048
1743759070.0600295,0.0005719245161920209
1743759070.0610056,0.0005826225577937632
1743759070.0619817,0.0005907963423883528
1743759070.0629575,0.000615798507030627
1743759070.0639334,0.0006450077666848222
1743759070.0649095,0.0006565472272889488
1743759070.0658858,0.0006670048634614384
1743759070.0668616,0.0006847948652261335
1743759070.0678375,0.0006851554733700124
1743759070.0688136,0.0006876797303771651
1743759070.0697896,0.0006900837846696915
1743759070.0707655,0.0006665240526029331
1743759070.0717413,0.0006426037123922959
1743759070.0727177,0.0006141156690258585
1743759070.0736938,0.0005845458012277843
1743759070.0746696,0.0005653133668875734
1743759070.0756454,0.0005464415406912415
1743759070.0766215,0.0005226414031952305
1743759070.0775976,0.0005256464710608885
1743759070.0785735,0.0005406718103891782
1743759070.0795496,0.0005370657289503886
1743759070.0805256,0.0005428354592524519
1743759070.0815017,0.0005490860004130205
1743759070.0824776,0.0005508890411324152
1743759070.0834534,0.0005543749198565784
1743759070.0844295,0.0005637507315974313
1743759070.0854056,0.0005710830971896367
1743759070.0863817,0.0005760114084893157
1743759070.0873575,0.0005808195170743685
1743759070.0883336,0.0005857478283740475
1743759070.0893097,0.0005851468148009159
1743759070.0902855,0.0005911569505322318
1743759070.0912614,0.0005880316799519475
1743759070.0922375,0.0005827427605083895
1743759070.0932138,0.0005725255297651525
1743759070.0941896,0.0005793770844988526
1743759070.0951655,0.0005868296528056843
1743759070.0961416,0.000605220668143511
1743759070.0971177,0.0006264965486323693
1743759070.0980935,0.0006357521576585958
1743759070.0990694,0.0006432047259654275
1743759070.1000457,0.0006404400635290221
1743759070.1010218,0.000633949116939201
1743759070.1019976,0.0006338289142245746
1743759070.1029735,0.0006397188472412643
1743759070.1039495,0.000644166347682438
1743759070.1049256,0.0006528209431355329
1743759070.1059015,0.0006602735114423645
1743759070.1068773,0.0006559462137158172
1743759070.1078537,0.0006587108761522226
1743759070.1088297,0.0006752988507706544
1743759070.1098056,0.000675539256199907
1743759070.1107814,0.0006952525013986231
1743759070.1117575,0.0007034262859932128
1743759070.1127336,0.0007341981809375501
1743759070.1137094,0.0007618448053016033
1743759070.1146855,0.0007767499419152668
1743759070.1156616,0.0007933379165336986
1743759070.1166377,0.0007949005518238407
1743759070.1176136,0.0008045167689939461
1743759070.1185894,0.0008064400124279672
1743759070.1195655,0.000803314741847683
1743759070.1205418,0.0007949005518238407
1743759070.1215177,0.0007656912921696454
1743759070.1224935,0.0007215768959017867
1743759070.1234696,0.0006617159440178805
1743759070.1244457,0.0006135146554527269
1743759070.1254215,0.0005631497180242997
1743759070.1263974,0.0005552163388589627
1743759070.1273735,0.0005350222828017413
1743759070.1283498,0.0005263676873486464
1743759070.1293256,0.0005388687696697835
1743759070.1303015,0.0005419940402500678
1743759070.1312776,0.0005596638393001364
1743759070.1322536,0.0005773336383502052
1743759070.1332295,0.0005882720853812002
1743759070.1342053,0.0006067833034336532
1743759070.1351817,0.0006346703332269589
1743759070.1361578,0.0006551047947134329
1743759070.1371336,0.0006694089177539648
1743759070.1381094,0.0006804675674995861
1743759070.1390855,0.0006974161502618969
1743759070.1400616,0.0007040272995663444
1743759070.1410375,0.0007237405447650605
1743759070.1420135,0.0007275870316331027
1743759070.1429896,0.0007271062207745974
1743759070.1439657,0.0007286688560647395
1743759070.1449416,0.0007259041936283342
1743759070.1459174,0.000722418314904171
1743759070.1468935,0.0007261445990575868
1743759070.1478696,0.0007268658153453448
1743759070.1488457,0.000716408179172855
1743759070.1498215,0.0007066717592881234
1743759070.1507976,0.0007116000705878024
1743759070.1517737,0.0007143647330242077
1743759070.1527495,0.000717129395460613
1743759070.1537254,0.0007000606099836758
1743759070.1547015,0.0006980171638350284
1743759070.1556778,0.0007011424344153127
1743759070.1566536,0.0006890019602380546
1743759070.1576295,0.0006784241213509387
1743759070.1586056,0.0006514987132746434
1743759070.1595817,0.00063659357666098
1743759070.1605575,0.0006333481033660694
1743759070.1615334,0.0006478926318358539
1743759070.1625097,0.0006567876327182014
1743759070.1634858,0.0006615957413032541
1743759070.1644616,0.0006595522951546067
1743759070.1654375,0.0006597927005838593
1743759070.1664135,0.0006605139168716173
1743759070.1673896,0.0006602735114423645
1743759070.1683655,0.0006627977684495173
1743759070.1693413,0.0006606341195862436
1743759070.1703176,0.000660033106013112
1743759070.1712937,0.0006702503367563491
1743759070.1722696,0.0006799867566410807
1743759070.1732454,0.0006845544597968808
1743759070.1742215,0.0006837130407944967
1743759070.1751976,0.0006876797303771651
1743759070.1761737,0.0006857564869431439
1743759070.1771495,0.0006810685810727177
1743759070.1781256,0.000686117095087023
1743759070.1791017,0.0006924878389622178
1743759070.1800776,0.0007042677049955969
1743759070.1810534,0.0007017434479884443
1743759070.1820295,0.0007065515565734971
1743759070.1830058,0.0007065515565734971
1743759070.1839817,0.000708835408151397
1743759070.1849575,0.0007113596651585497
1743759070.1859336,0.000717490003604492
1743759070.1869097,0.0007057101375711128
1743759070.1878855,0.0006892423656673073
1743759070.1888614,0.000691045406386702
1743759070.1898375,0.0007040272995663444
1743759070.1908138,0.0006997000018397968
1743759070.1917896,0.0007016232452738179
1743759070.1927655,0.0006939302715377338
1743759070.1937416,0.0006911656091013284
1743759070.1947176,0.000678544324065565
1743759070.1956935,0.000675178648056028
1743759070.1966693,0.0006810685810727177
1743759070.1976457,0.0006890019602380546
1743759070.1986217,0.0007000606099836758
1743759070.1995976,0.0006975363529765232
1743759070.2005734,0.0006954929068278757
1743759070.2015495,0.0006971757448326442
1743759070.2025256,0.0007065515565734971
1743759070.2035015,0.0007168889900313604
1743759070.2044775,0.0007176102063191182
1743759070.2054536,0.000717850611748371
1743759070.2064297,0.0007210960850432815
1743759070.2074056,0.000725783990913708
1743759070.2083814,0.0007260243963429605
1743759070.2093575,0.0007182112198922498
1743759070.2103336,0.0007106384488707918
1743759070.2113097,0.0007136435167364499
1743759070.2122855,0.0007194132470385131
1743759070.2132616,0.0007210960850432815
1743759070.2142377,0.0007202546660408973
1743759070.2152135,0.000706190948429618
1743759070.2161894,0.0007048687185687285
1743759070.2171655,0.0007179708144629972
1743759070.2181418,0.0007231395311919289
1743759070.2191176,0.000722057706760292
1743759070.2200935,0.0007168889900313604
1743759070.2210696,0.0007156869628850972
1743759070.2220457,0.000707272772861255
1743759070.2230215,0.0007132829085925708
1743759070.2239974,0.0007132829085925708
1743759070.2249737,0.0007117202733024288
1743759070.2259498,0.0007010222317006863
1743759070.2269256,0.0006969353394033917
1743759070.2279015,0.0006891221629526809
1743759070.2288775,0.0006813089865019702
1743759070.2298536,0.0006787847294948175
1743759070.2308295,0.0006851554733700124
1743759070.2318053,0.0006909252036720756
1743759070.2327816,0.000706912164717376
1743759070.2337577,0.000723980950194313
1743759070.2347336,0.0007396073030957345
1743759070.2357094,0.0007464588578294345
1743759070.2366855,0.0007451366279685451
1743759070.2376616,0.0007493437229804663
1743759070.2386377,0.0007385254786640977
1743759070.2396135,0.0007285486533501131
1743759070.2405896,0.0007379244650909661
1743759070.2415657,0.0007476608849756977
1743759070.2425416,0.0007625660215893612
1743759070.2435174,0.0007679751437475456
1743759070.2444935,0.0007678549410329192
1743759070.2454698,0.0007701387926108192
1743759070.2464457,0.0007498245338389715
1743759070.2474215,0.0007292698696378711
1743759070.2483976,0.0007228991257626763
1743759070.2493737,0.0007323951402181554
1743759070.2503495,0.00075607507499954
1743759070.2513254,0.0007632872378771191
1743759070.2523015,0.0007536710207070137
1743759070.2532778,0.0007460982496855557
1743759070.2542536,0.0007380446678055923
1743759070.2552295,0.00072734662620385
1743759070.2562056,0.0007410497356712503
1743759070.2571816,0.0007528296017046294
1743759070.2581575,0.0007630468324478665
1743759070.2591333,0.0007590801428651981
1743759070.2601097,0.0007590801428651981
1743759070.2610857,0.0007521083854168715
1743759070.2620616,0.0007585993320066926
1743759070.2630374,0.0007647296704526349
1743759070.2640135,0.0007718216306155878
1743759070.2649896,0.0007807166314979353
1743759070.2659655,0.0007834812939343405
1743759070.2669415,0.0007863661590853722
1743759070.2679176,0.0007854045373683616
1743759070.2688937,0.0007879287943755143
1743759070.2698696,0.0007911742676704248
1743759070.2708454,0.000787447983517009
1743759070.2718215,0.0007894914296656565
1743759070.2727976,0.0007970642006871145
1743759070.2737737,0.0007964631871139829
1743759070.2747495,0.0008004298766966514
1743759070.2757256,0.0008090844721497462
1743759070.2767017,0.0008197825137514885
1743759070.2776775,0.0008241098114780361
1743759070.2786534,0.0008260330549120571
1743759070.2796295,0.0008177390676028412
1743759070.2806058,0.000811969337300778
1743759070.2815816,0.0008136521753055463
1743759070.2825575,0.0008245906223365413
1743759070.2835336,0.0008406977860964679
1743759070.2845097,0.0008446644756791364
1743759070.2854855,0.0008521170439859681
1743759070.2864614,0.0008417796105281047
1743759070.2874377,0.0008286775146338362
1743759070.2884138,0.0008081228504327357
1743759070.2893896,0.0008167774458858306
1743759070.2903655,0.0008171380540297097
1743759070.2913415,0.0008306007580678572
1743759070.2923176,0.0008265138657705624
1743759070.2932935,0.0008327644069311309
1743759070.2942693,0.0008319229879287466
1743759070.2952456,0.0008267542711998151
1743759070.2962217,0.0008367310965137994
1743759070.2971976,0.0008307209607824835
1743759070.2981734,0.0008391351508063257
1743759070.2991495,0.0008403371779525889
1743759070.3001256,0.0008391351508063257
1743759070.3011017,0.0008356492720821626
1743759070.3020775,0.0008390149480916993
1743759070.3030536,0.0008393755562355784
1743759070.3040297,0.0008411785969549731
1743759070.3050056,0.000832403798787252
1743759070.3059814,0.0008310815689263625
1743759070.3069575,0.0008262734603413096
1743759070.3079338,0.0008278360956314518
1743759070.3089097,0.0008226673789025202
1743759070.3098855,0.0008224269734732675
1743759070.3108616,0.0008272350820583203
1743759070.3118377,0.0008355290693675362
1743759070.3128135,0.0008400967725233363
1743759070.3137894,0.0008397361643794573
1743759070.3147655,0.0008479099489740469
1743759070.3157418,0.0008547615037077472
1743759070.3167176,0.0008562039362832629
1743759070.3176935,0.0008599302204366789
1743759070.3186696,0.0008577665715734051
1743759070.3196456,0.0008523574494152206
1743759070.3206215,0.0008494725842641891
1743759070.3215973,0.0008457463001107732
1743759070.3225737,0.0008443038675352574
1743759070.3235497,0.0008474291381155417
1743759070.3245256,0.0008468281245424101
1743759070.3255014,0.0008473089354009153
1743759070.3264775,0.0008562039362832629
1743759070.3274536,0.0008646181263071051
1743759070.3284295,0.0008664211670264999
1743759070.3294055,0.0008477897462594207
1743759070.3303816,0.000845265489252268
1743759070.3313577,0.0008411785969549731
1743759070.3323336,0.000837332110086931
1743759070.3333094,0.0008384139345185678
1743759070.3342855,0.0008414190023842259
1743759070.3352616,0.0008368512992284258
1743759070.3362377,0.0008333654205042625
1743759070.3372135,0.0008348078530797783
1743759070.3381896,0.0008414190023842259
1743759070.3391657,0.0008487513679764311
1743759070.3401415,0.0008521170439859681
1743759070.3411174,0.0008482705571179259
1743759070.3420935,0.0008590888014342945
1743759070.3430698,0.0008660605588826209
1743759070.3440456,0.0008676231941727631
1743759070.3450215,0.000868344410460521
1743759070.3459976,0.0008636565045900946
1743759070.3469737,0.0008570453552856471
1743759070.3479495,0.0008527180575590997
1743759070.3489254,0.0008486311652618049
1743759070.3499017,0.0008411785969549731
1743759070.3508778,0.0008302401499239782
1743759070.3518536,0.0008238694060487833
1743759070.3528295,0.0008284371092045834
1743759070.3538055,0.0008330048123603835
1743759070.3547816,0.0008451452865376416
1743759070.3557575,0.0008642575181632262
1743759070.3567333,0.0008834899525034371
1743759070.3577096,0.0008977940755439689
1743759070.3586857,0.0009108961714382376
1743759070.3596616,0.0009018809678412637
1743759070.3606374,0.0008946688049636846
1743759070.3616135,0.0008846919796497003
1743759070.3625896,0.0008833697497888107
1743759070.3635657,0.0008850525877935792
1743759070.3645415,0.0008931061696735425
1743759070.3655176,0.0009058476574239322
1743759070.3664937,0.0009034436031314058
1743759070.3674695,0.0008928657642442899
1743759070.3684454,0.0008897404936640056
1743759070.3694215,0.0008848121823643267
1743759070.3703978,0.0008753161679088475
1743759070.3713737,0.0008735131271894527
1743759070.3723495,0.0008804848846377791
1743759070.3733256,0.0008852929932228319
1743759070.3743017,0.0008886586692323688
1743759070.3752775,0.0008943081968198057
1743759070.3762534,0.0009045254275630428
1743759070.3772295,0.0009024819814143953
1743759070.3782058,0.0009070496845701954
1743759070.3791816,0.0009012799542681321
1743759070.3801575,0.0008989961026902321
1743759070.3811336,0.0008879374529446108
1743759070.3821096,0.0008860142095105898
1743759070.3830855,0.0008801242764939002
1743759070.3840613,0.0008801242764939002
1743759070.3850377,0.0008696666403214104
1743759070.3860137,0.0008709888701823
1743759070.3869896,0.0008854131959374582
1743759070.3879654,0.0008893798855201266
1743759070.3889415,0.0008852929932228319
1743759070.3899176,0.0008813263036401633
1743759070.3908935,0.0008860142095105898
1743759070.3918695,0.0008862546149398424
1743759070.3928456,0.0008876970475153582
1743759070.3938217,0.0008860142095105898
1743759070.3947976,0.0008856536013667108
1743759070.3957734,0.000883850560647316
1743759070.3967495,0.0008749555597649685
1743759070.3977256,0.0008814465063547897
1743759070.3987017,0.000879643465635395
1743759070.3996775,0.0008802444792085266
1743759070.4006536,0.0008767586004843632
1743759070.4016297,0.0008757969787673527
1743759070.4026055,0.0008741141407625843
1743759070.4035814,0.000873993938047958
1743759070.4045575,0.0008748353570503421
1743759070.4055338,0.0008795232629207686
1743759070.4065096,0.0008773596140574948
1743759070.4074855,0.0008774798167721212
1743759070.4084616,0.0008776000194867475
1743759070.4094377,0.0008772394113428687
1743759070.4104135,0.000882287925357174
1743759070.4113894,0.0008809656954962844
1743759070.4123657,0.0008790424520622634
1743759070.4133418,0.0008779606276306264
1743759070.4143176,0.0008820475199279213
1743759070.4152935,0.0008794030602061422
1743759070.4162695,0.0008819273172132949
1743759070.4172456,0.0008778404249160002
1743759070.4182215,0.0008727919109016947
1743759070.4191973,0.0008760373841966053
1743759070.4201736,0.0008737535326187053
1743759070.4211497,0.0008714696810408054
1743759070.4221256,0.0008719504918993106
1743759070.4231014,0.0008807252900670318
1743759070.4240775,0.0008907021153810161
1743759070.4250536,0.0008971930619708373
1743759070.4260297,0.0008944283995344321
1743759070.4270055,0.0008851727905082055
1743759070.4279816,0.0008757969787673527
1743759070.4289577,0.000878561641203758
1743759070.4299335,0.0008803646819231528
1743759070.4309094,0.000881566709069416
1743759070.4318855,0.0008779606276306264
1743759070.4328618,0.0008768788031989896
1743759070.4338377,0.0008757969787673527
1743759070.4348135,0.0008836101552180635
1743759070.4357896,0.000878561641203758
1743759070.4367657,0.0008837303579326897
1743759070.4377415,0.0008987556972609795
1743759070.4387174,0.0009022415759851426
1743759070.4396935,0.0009054870492800532
1743759070.4406698,0.0009012799542681321
1743759070.4416456,0.0009014001569827585
1743759070.4426215,0.0008982748864024742
1743759070.4435976,0.000902722386843648
1743759070.4445736,0.000913300225730764
1743759070.4455495,0.0009217144157546062
1743759070.4465253,0.0009166659017403009
