1743758653.6570435,-0.0029087854912422683
1743758653.6580193,-0.0029087854912422683
1743758653.6589954,-0.0029087854912422683
1743758653.6599715,-0.0029087854912422683
1743758653.6609476,-0.0029087854912422683
1743758653.6619234,-0.0029087854912422683
1743758653.6628995,-0.0029087854912422683
1743758653.6638756,-0.0029087854912422683
1743758653.6648514,-0.002925133060431448
1743758653.6658273,-0.0029197239382732637
1743758653.6668034,-0.00292212799256579
1743758653.6677797,-0.0029174400866953634
1743758653.6687555,-0.002915757248690595
1743758653.6697314,-0.002917680492124616
1743758653.6707075,-0.002908545085813016
1743758653.6716835,-0.0029114299509640476
1743758653.6726594,-0.0029125117753956843
1743758653.6736352,-0.002914675424258958
1743758653.6746116,-0.002911550153678674
1743758653.6755877,-0.0029117905591079262
1743758653.6765635,-0.002913593599827321
1743758653.6775393,-0.0029198441409878898
1743758653.6785154,-0.0029162380595491003
1743758653.6794915,-0.0029230896142828
1743758653.6804674,-0.0029244118441436903
1743758653.6814432,-0.0029238108305705587
1743758653.6824195,-0.002927416912009348
1743758653.6833956,-0.0029325856287382795
1743758653.6843715,-0.002932465426023653
1743758653.6853473,-0.0029307825880188847
1743758653.6863234,-0.0029239310332851848
1743758653.6872995,-0.0029181613029831215
1743758653.6882753,-0.002914915829688211
1743758653.6892514,-0.002914555221544332
1743758653.6902275,-0.002908545085813016
1743758653.6912036,-0.0029095067075300264
1743758653.6921794,-0.002906621842378995
1743758653.6931553,-0.002900371301218426
1743758653.6941314,-0.002903135963654832
1743758653.6951077,-0.002900130895789174
1743758653.6960835,-0.0028971258279235153
1743758653.6970594,-0.002897606638782021
1743758653.6980355,-0.0028980874496405263
1743758653.6990116,-0.0029024147473670735
1743758653.6999874,-0.0029080642749545107
1743758653.7009633,-0.0029107087346762896
1743758653.7019393,-0.0029132329916834424
1743758653.7029157,-0.0029159976541198473
1743758653.7038915,-0.0029140744106858265
1743758653.7048674,-0.002910107721103158
1743758653.7058434,-0.0029159976541198473
1743758653.7068195,-0.0029173198839807374
1743758653.7077954,-0.0029204451545610213
1743758653.7087712,-0.002919603735558637
1743758653.7097476,-0.0029170794785514844
1743758653.7107236,-0.0029132329916834424
1743758653.7116995,-0.002911309748249421
1743758653.7126753,-0.0029093865048154
1743758653.7136514,-0.002913112788968816
1743758653.7146275,-0.0029110693428201686
1743758653.7156034,-0.0029009723147915578
1743758653.7165794,-0.002900010693074547
1743758653.7175555,-0.0028936399491993527
1743758653.7185316,-0.0028899136650459363
1743758653.7195075,-0.0028895530569020577
1743758653.7204833,-0.0028940005573432313
1743758653.7214594,-0.0028985682604990314
1743758653.7224355,-0.0029024147473670735
1743758653.7234116,-0.002905179409803479
1743758653.7243874,-0.0029117905591079262
1743758653.7253635,-0.002907583464096005
1743758653.7263396,-0.002913112788968816
1743758653.7273154,-0.0029086652885276423
1743758653.7282913,-0.002909266302100774
1743758653.7292674,-0.0029117905591079262
1743758653.7302437,-0.0029065016396643685
1743758653.7312195,-0.0029098673156739054
1743758653.7321954,-0.0029114299509640476
1743758653.7331715,-0.002910348126532411
1743758653.7341475,-0.002905900626091237
1743758653.7351234,-0.0029048188016596
1743758653.7360992,-0.002907463261381379
1743758653.7370756,-0.0029081844776691367
1743758653.7380517,-0.0029095067075300264
1743758653.7390275,-0.002910588531961663
1743758653.7400033,-0.0029027753555109525
1743758653.7409794,-0.002902054139223195
1743758653.7419555,-0.0029071026532375
1743758653.7429314,-0.002916598667692979
1743758653.7439072,-0.0029173198839807374
1743758653.7448835,-0.0029069824505228736
1743758653.7458596,-0.002907823869525258
1743758653.7468355,-0.0029077036668106316
1743758653.7478113,-0.0029107087346762896
1743758653.7487874,-0.002913112788968816
1743758653.7497635,-0.002906621842378995
1743758653.7507396,-0.002911309748249421
1743758653.7517154,-0.002908905693956895
1743758653.7526915,-0.002906621842378995
1743758653.7536676,-0.002913112788968816
1743758653.7546434,-0.0029102279238177845
1743758653.7556193,-0.0029127521808249373
1743758653.7565954,-0.002915036032402837
1743758653.7575717,-0.0029203249518463953
1743758653.7585475,-0.0029186421138416266
1743758653.7595234,-0.0029084248830983897
1743758653.7604995,-0.002922007789851163
1743758653.7614756,-0.0029270563038654687
1743758653.7624514,-0.0029265754930069636
1743758653.7634273,-0.0029276573174386003
1743758653.7644033,-0.002920925965419527
1743758653.7653797,-0.0029212865735634055
1743758653.7663555,-0.002913473397112695
1743758653.7673314,-0.0029184017084123736
1743758653.7683074,-0.0029171996812661105
1743758653.7692835,-0.002912391572681058
1743758653.7702594,-0.0029144350188297055
1743758653.7712352,-0.00291756028940999
1743758653.7722116,-0.0029174400866953634
1743758653.7731876,-0.0029144350188297055
1743758653.7741635,-0.002917920897553869
1743758653.7751393,-0.0029173198839807374
1743758653.7761154,-0.0029119107618225527
1743758653.7770915,-0.0029079440722398846
1743758653.7780674,-0.0029110693428201686
1743758653.7790434,-0.002914675424258958
1743758653.7800195,-0.002919122924700132
1743758653.7809956,-0.0029197239382732637
1743758653.7819715,-0.002924051235999811
1743758653.7829473,-0.002930421979875006
1743758653.7839234,-0.00293943718347198
1743758653.7848995,-0.002942201845908385
1743758653.7858756,-0.0029419614404791322
1743758653.7868514,-0.0029472503599226904
1743758653.7878275,-0.002948211981639701
1743758653.7888036,-0.0029496544142152167
1743758653.7897794,-0.0029454473192032956
1743758653.7907553,-0.002936432115606322
1743758653.7917314,-0.0029363119128916954
1743758653.7927077,-0.0029246522495729424
1743758653.7936835,-0.002919243127414758
1743758653.7946594,-0.002918762316556253
1743758653.7956355,-0.0029186421138416266
1743758653.7966115,-0.002915757248690595
1743758653.7975874,-0.0029158774514052212
1743758653.7985632,-0.002905900626091237
1743758653.7995396,-0.0029052996125181053
1743758653.8005157,-0.0029095067075300264
1743758653.8014915,-0.0029086652885276423
1743758653.8024673,-0.002914555221544332
1743758653.8034434,-0.002924772452287569
1743758653.8044195,-0.002931503804306643
1743758653.8053954,-0.00293126339887739
1743758653.8063712,-0.0029345088721723007
1743758653.8073475,-0.002935710899318564
1743758653.8083236,-0.0029318644124505214
1743758653.8092995,-0.002924051235999811
1743758653.8102753,-0.0029208057627049
1743758653.8112514,-0.0029197239382732637
1743758653.8122275,-0.002910348126532411
1743758653.8132036,-0.002898928868642911
1743758653.8141794,-0.0029034965717987106
1743758653.8151555,-0.002903256166369458
1743758653.8161316,-0.002908545085813016
1743758653.8171074,-0.0029052996125181053
1743758653.8180833,-0.002901933936508569
1743758653.8190594,-0.0029034965717987106
1743758653.8200357,-0.0029087854912422683
1743758653.8210115,-0.002907343058666753
1743758653.8219874,-0.0029169592758368583
1743758653.8229635,-0.0029199643437025163
1743758653.8239396,-0.0029223683979950426
1743758653.8249154,-0.0029242916414290634
1743758653.8258913,-0.0029258542767192056
1743758653.8268673,-0.0029238108305705587
1743758653.8278437,-0.0029212865735634055
1743758653.8288195,-0.002920685559990274
1743758653.8297954,-0.002925253263146074
1743758653.8307714,-0.0029288593445848635
1743758653.8317475,-0.0029227290061389216
1743758653.8327234,-0.002914915829688211
1743758653.8336992,-0.002922007789851163
1743758653.8346756,-0.0029161178568344742
1743758653.8356516,-0.0029193633301293847
1743758653.8366275,-0.002927416912009348
1743758653.8376033,-0.00292801792558248
1743758653.8385794,-0.0029316240070212693
1743758653.8395555,-0.002936912926464827
1743758653.8405313,-0.0029385957644695957
1743758653.8415074,-0.0029434038730546484
1743758653.8424835,-0.00294268265676689
1743758653.8434596,-0.002946769549064185
1743758653.8444355,-0.002946649346349559
1743758653.8454113,-0.002943884683913153
1743758653.8463874,-0.002942923062196143
1743758653.8473635,-0.0029379947508964637
1743758653.8483396,-0.002937634142752585
1743758653.8493154,-0.0029345088721723007
1743758653.8502915,-0.0029306623853042582
1743758653.8512676,-0.0029271765065800952
1743758653.8522434,-0.0029333068450260375
1743758653.8532193,-0.002934388669457674
1743758653.8541954,-0.00292801792558248
1743758653.8551717,-0.002921046168134153
1743758653.8561475,-0.002925974479433832
1743758653.8571234,-0.002927897722867853
1743758653.8580995,-0.0029295805608726216
1743758653.8590755,-0.002931984615165148
1743758653.8600514,-0.002937754345467211
1743758653.8610272,-0.0029416008323352536
1743758653.8620036,-0.0029446059002009115
1743758653.8629797,-0.002946769549064185
1743758653.8639555,-0.0029447261029155376
1743758653.8649313,-0.0029444856974862846
1743758653.8659074,-0.002945086711059416
1743758653.8668835,-0.0029400381970451114
1743758653.8678594,-0.0029370331291794535
1743758653.8688352,-0.002926094682148458
1743758653.8698115,-0.0029266956957215897
1743758653.8707876,-0.0029258542767192056
1743758653.8717635,-0.002930181574445753
1743758653.8727393,-0.0029330664395967846
1743758653.8737154,-0.0029316240070212693
1743758653.8746915,-0.0029246522495729424
1743758653.8756676,-0.0029215269789926585
1743758653.8766434,-0.002924892655002195
1743758653.8776195,-0.0029297007635872476
1743758653.8785956,-0.0029367927237502005
1743758653.8795714,-0.002939557386186606
1743758653.8805473,-0.002939917994330485
1743758653.8815234,-0.0029402786024743635
1743758653.8824997,-0.0029442452920570325
1743758653.8834755,-0.00294496650834479
1743758653.8844514,-0.0029371533318940796
1743758653.8854275,-0.002936191710177069
1743758653.8864036,-0.0029342684667430477
1743758653.8873794,-0.002936191710177069
1743758653.8883553,-0.002935710899318564
1743758653.8893313,-0.0029391967780427273
1743758653.8903077,-0.0029299411690165006
1743758653.8912835,-0.0029239310332851848
1743758653.8922594,-0.002926335087577711
1743758653.8932354,-0.0029295805608726216
1743758653.8942115,-0.0029375139400379586
1743758653.8951874,-0.0029402786024743635
1743758653.8961632,-0.0029389563726134743
1743758653.8971395,-0.002945327116488669
1743758653.8981156,-0.0029423220486230113
1743758653.8990915,-0.0029484523870689536
1743758653.9000673,-0.002953500901083259
1743758653.9010434,-0.002958789820526817
1743758653.9020195,-0.002965641375260517
1743758653.9029953,-0.002967925226838417
1743758653.9039714,-0.0029758586060037538
1743758653.9049475,-0.0029764596195768853
1743758653.9059236,-0.002983070768881333
1743758653.9068995,-0.0029819889444496965
1743758653.9078753,-0.002980306106444928
1743758653.9088514,-0.002981508133591191
1743758653.9098275,-0.002971050497418701
1743758653.9108036,-0.002969728267557812
1743758653.9117794,-0.002961434280248596
1743758653.9127555,-0.0029500150223590958
1743758653.9137316,-0.0029428028594815168
1743758653.9147074,-0.0029461685354910533
1743758653.9156833,-0.002951337252219985
1743758653.9166594,-0.002963958537255748
1743758653.9176357,-0.0029644393481142537
1743758653.9186115,-0.0029720121191357117
1743758653.9195874,-0.002972132321850338
1743758653.9205635,-0.0029789838765840386
1743758653.9215395,-0.0029834313770252118
1743758653.9225154,-0.0029864364448908697
1743758653.9234912,-0.0029847536068861014
1743758653.9244676,-0.002982589958022828
1743758653.9254436,-0.002979344484727917
1743758653.9264195,-0.002973214146281975
1743758653.9273953,-0.0029646797535435067
1743758653.9283714,-0.0029613140775339697
1743758653.9293475,-0.0029575877933805538
1743758653.9303234,-0.0029661221861190224
1743758653.9312992,-0.0029692474566993064
1743758653.9322755,-0.0029718919164210857
1743758653.9332516,-0.0029760990114330067
1743758653.9342275,-0.002980306106444928
1743758653.9352033,-0.0029792242820132907
1743758653.9361794,-0.0029805465118741803
1743758653.9371555,-0.0029764596195768853
1743758653.9381316,-0.0029824697553082016
1743758653.9391074,-0.0029837919851690912
1743758653.9400835,-0.0029797050928717962
1743758653.9410596,-0.0029821091471643225
1743758653.9420354,-0.002977060633150017
1743758653.9430113,-0.0029664827942629014
1743758653.9439874,-0.0029675646186945377
1743758653.9449637,-0.002966963605121406
1743758653.9459395,-0.00297730103857927
1743758653.9469154,-0.0029809071200180594
1743758653.9478915,-0.0029864364448908697
1743758653.9488676,-0.0029839121878837173
1743758653.9498434,-0.002984392998742223
1743758653.9508193,-0.002974416173428238
1743758653.9517953,-0.0029738151598551065
1743758653.9527717,-0.002975497997859875
1743758653.9537475,-0.002990042526329659
1743758653.9547234,-0.0029947304322000858
1743758653.9556994,-0.002995812256631723
1743758653.9566755,-0.002993047594195317
1743758653.9576514,-0.0029979759054949966
1743758653.9586272,-0.00300013955435827
1743758653.9596035,-0.0029968940810633595
1743758653.9605796,-0.0029884798910395174
1743758653.9615555,-0.0029896819181857806
1743758653.9625313,-0.0029938890131977016
1743758653.9635074,-0.002995812256631723
1743758653.9644835,-0.002991605161619802
1743758653.9654593,-0.0029854748231738595
1743758653.9664354,-0.002989802120900407
1743758653.9674115,-0.002991965769763681
1743758653.9683876,-0.0029922061751929334
1743758653.9693635,-0.002994009215912328
1743758653.9703393,-0.0029937688104830756
1743758653.9713154,-0.0029949708376293387
1743758653.9722915,-0.0029896819181857806
1743758653.9732676,-0.0029849940123153544
1743758653.9742434,-0.0029913647561905492
1743758653.9752195,-0.002990282931758912
1743758653.9761956,-0.0029906435399027907
1743758653.9771714,-0.002994490026770833
1743758653.9781473,-0.0029994183380705123
1743758653.9791234,-0.0029998991489290174
1743758653.9800997,-0.003005428473801828
1743758653.9810755,-0.0030071113118065964
1743758653.9820514,-0.0030142032719695493
1743758653.9830275,-0.003016366920832823
1743758653.9840035,-0.0030168477316913286
1743758653.9849794,-0.0030214154348471283
1743758653.9859552,-0.003025382124429797
1743758653.9869316,-0.0030199730022716126
1743758653.9879076,-0.0030210548267032497
1743758653.9888835,-0.0030167275289767017
1743758653.9898593,-0.0030097557715283757
1743758653.9908354,-0.003003385027653181
1743758653.9918115,-0.0030176891506937128
1743758653.9927874,-0.003023458880995776
1743758653.9937634,-0.0030256225298590494
1743758653.9947395,-0.003026223543432181
1743758653.9957156,-0.0030166073262620757
1743758653.9966915,-0.0030136022583964178
1743758653.9976673,-0.0030169679344059547
1743758653.9986434,-0.003022256853849513
1743758653.9996195,-0.003024660908142039
1743758654.0005956,-0.0030339165171682655
1743758654.0015714,-0.0030387246257533185
1743758654.0025475,-0.0030414892881897235
1743758654.0035236,-0.0030429317207652396
1743758654.0044994,-0.003041970099048229
1743758654.0054753,-0.0030342771253121445
1743758654.0064514,-0.003021896245705634
1743758654.0074277,-0.00301288104210866
1743758654.0084035,-0.003007231514521223
1743758654.0093794,-0.003003505230367807
1743758654.0103555,-0.003000259757072897
1743758654.0113316,-0.0030048274602286966
1743758654.0123074,-0.0030020627977922917
1743758654.0132833,-0.0030006203652167755
1743758654.0142593,-0.003008914352525991
1743758654.0152357,-0.0030174487452644602
1743758654.0162115,-0.0030155255018304386
1743758654.0171874,-0.003009875974243002
1743758654.0181634,-0.0030108375959600124
1743758654.0191395,-0.0030131214475379122
1743758654.0201154,-0.0030174487452644602
1743758654.0210912,-0.003013241650252539
1743758654.0220675,-0.0030152850964011864
1743758654.0230436,-0.0030156457045450655
1743758654.0240195,-0.0030229780701372705
1743758654.0249953,-0.0030258629352883024
1743758654.0259714,-0.0030282669895808287
1743758654.0269475,-0.003032834692736629
1743758654.0279233,-0.00303475793617065
1743758654.0288994,-0.0030282669895808287
1743758654.0298755,-0.0030300700303002234
1743758654.0308516,-0.003036681179604671
1743758654.0318274,-0.00303571955788766
1743758654.0328033,-0.0030257427325736763
1743758654.0337794,-0.003024660908142039
1743758654.0347555,-0.0030186507724107234
1743758654.0357316,-0.0030259831380029284
1743758654.0367074,-0.003026103340717555
1743758654.0376835,-0.0030240598945689076
1743758654.0386596,-0.0030247811108566653
1743758654.0396354,-0.0030313922601611126
1743758654.0406113,-0.0030365609768900448
1743758654.0415874,-0.003036801382319297
1743758654.0425637,-0.003038243814894813
1743758654.0435395,-0.003044253950626129
1743758654.0445154,-0.0030501438836428186
1743758654.0454915,-0.00305074489721595
1743758654.0464675,-0.0030447347614846344
1743758654.0474434,-0.003039445842041076
1743758654.0484192,-0.003044013545196876
1743758654.0493956,-0.003045095369628513
1743758654.0503716,-0.0030473792212064132
1743758654.0513475,-0.0030437731397676237
1743758654.0523233,-0.003043532734338371
1743758654.0532994,-0.0030417296936189765
1743758654.0542755,-0.0030471388157771607
1743758654.0552514,-0.0030448549641992604
1743758654.0562274,-0.003046537802204029
1743758654.0572035,-0.0030459367886308975
1743758654.0581796,-0.0030468984103479077
1743758654.0591555,-0.003048100437494171
1743758654.0601313,-0.003054591384083992
1743758654.0611074,-0.0030560338166595083
1743758654.0620835,-0.0030520671270768394
1743758654.0630596,-0.003053629762366982
1743758654.0640354,-0.003059760100812924
1743758654.0650115,-0.003065169222971108
1743758654.0659876,-0.003064087398539471
1743758654.0669634,-0.0030560338166595083
1743758654.0679393,-0.00305988030352755
1743758654.0689154,-0.0030607217225299345
1743758654.0698917,-0.003063967195824845
1743758654.0708675,-0.0030590388845251663
1743758654.0718434,-0.0030512257080744557
1743758654.0728195,-0.003048340842923424
1743758654.0737956,-0.0030499034782135656
1743758654.0747714,-0.003060120708956803
1743758654.0757473,-0.0030581974655227817
1743758654.0767233,-0.0030636065876809664
1743758654.0776997,-0.003062765168678582
1743758654.0786755,-0.0030674530745490084
1743758654.0796514,-0.003071179358702424
1743758654.0806274,-0.0030739440211388293
1743758654.0816035,-0.0030687753044098976
1743758654.0825794,-0.0030699773315561608
1743758654.0835552,-0.003055192397657124
1743758654.0845315,-0.003042330707192108
1743758654.0855076,-0.0030329548954512553
1743758654.0864835,-0.003041248882760471
1743758654.0874593,-0.0030501438836428186
1743758654.0884354,-0.003049422667355061
1743758654.0894115,-0.003047980234779545
1743758654.0903873,-0.0030436529370529973
1743758654.0913634,-0.0030497832754989396
1743758654.0923395,-0.0030501438836428186
1743758654.0933156,-0.003052668140649971
1743758654.0942914,-0.0030606015198153085
1743758654.0952673,-0.003060962127959187
1743758654.0962434,-0.0030664914528319973
1743758654.0972195,-0.0030709389532731714
1743758654.0981956,-0.0030698571288415347
1743758654.0991714,-0.003074184426568082
1743758654.1001475,-0.0030721409804194346
1743758654.1011236,-0.003075747061858224
1743758654.1020994,-0.0030762278727167296
1743758654.1030753,-0.0030735834129949503
1743758654.1040514,-0.0030625247632493293
1743758654.1050277,-0.003054831789513245
1743758654.1060035,-0.0030535095596523555
1743758654.1069794,-0.00305663483023264
1743758654.1079555,-0.0030560338166595083
1743758654.1089315,-0.003048100437494171
1743758654.1099074,-0.003052547937935345
1743758654.1108832,-0.0030554328030863768
1743758654.1118596,-0.0030502640863574446
1743758654.1128356,-0.003044013545196876
1743758654.1138115,-0.00304617719406015
1743758654.1147873,-0.00304846104563805
1743758654.1157634,-0.003053870167796234
1743758654.1167395,-0.003061322736103066
1743758654.1177154,-0.003055192397657124
1743758654.1186914,-0.003051466113503708
1743758654.1196675,-0.003053749965081608
1743758654.1206436,-0.0030554328030863768
1743758654.1216195,-0.0030581974655227817
1743758654.1225953,-0.0030636065876809664
1743758654.1235714,-0.0030658904392588658
1743758654.1245475,-0.003076468278145982
1743758654.1255236,-0.0030781511161507504
1743758654.1264994,-0.003074424831997335
1743758654.1274755,-0.0030750258455704664
1743758654.1284516,-0.0030735834129949503
1743758654.1294274,-0.0030720207777048085
1743758654.1304033,-0.003067332871834382
1743758654.1313794,-0.0030619237496761977
1743758654.1323557,-0.0030592792899544184
1743758654.1333315,-0.0030616833442469447
1743758654.1343074,-0.0030649288175418556
1743758654.1352835,-0.0030795935487262665
1743758654.1362596,-0.0030791127378677614
1743758654.1372354,-0.003075747061858224
1743758654.1382113,-0.0030728621967071926
1743758654.1391876,-0.0030812763867310348
1743758654.1401637,-0.00307947334601164
1743758654.1411395,-0.0030864451034599664
1743758654.1421154,-0.003083680441023561
1743758654.1430914,-0.003087406725176977
1743758654.1440675,-0.0030866855088892194
1743758654.1450434,-0.003085844089886835
1743758654.1460192,-0.003095340104342314
1743758654.1469955,-0.003095820915200819
1743758654.1479716,-0.00309546030705694
1743758654.1489475,-0.0030959411179154457
1743758654.1499233,-0.0030854834817429563
1743758654.1508994,-0.0030735834129949503
1743758654.1518755,-0.003060841925244561
1743758654.1528513,-0.003063125776822461
1743758654.1538274,-0.0030663712501173713
1743758654.1548035,-0.003063846993110219
1743758654.1557796,-0.003065529831114987
1743758654.1567554,-0.003069616723412282
1743758654.1577313,-0.003074545034711961
1743758654.1587074,-0.003074064223853456
1743758654.1596835,-0.0030749056428558403
1743758654.1606596,-0.0030905319957572615
1743758654.1616354,-0.003099787604783488
1743758654.1626115,-0.0031126492952485035
1743758654.1635876,-0.003117697809262809
1743758654.1645634,-0.003114692741397151
1743758654.1655393,-0.0031098846328120986
1743758654.1665154,-0.003094378482625304
1743758654.1674917,-0.0030893299686109983
1743758654.1684675,-0.0031014704427882564
1743758654.1694434,-0.0031053169296562984
1743758654.1704195,-0.0031041149025100353
1743758654.1713955,-0.0030936572663375454
1743758654.1723714,-0.003072381385848687
1743758654.1733472,-0.0030459367886308975
1743758654.1743236,-0.0030372821931778024
1743758654.1752996,-0.00302333867828115
1743758654.1762755,-0.00302430029999816
1743758654.1772513,-0.003030671043873355
1743758654.1782274,-0.0030383640176094395
1743758654.1792035,-0.0030497832754989396
1743758654.1801794,-0.003055913613944882
1743758654.1811554,-0.0030539903705108606
1743758654.1821315,-0.0030560338166595083
1743758654.1831076,-0.003052307532506092
1743758654.1840835,-0.0030600005062421764
1743758654.1850593,-0.0030616833442469447
1743758654.1860354,-0.003064207601254098
1743758654.1870115,-0.0030691359125537766
1743758654.1879876,-0.0030687753044098976
1743758654.1889634,-0.0030728621967071926
1743758654.1899395,-0.0030719005749901824
1743758654.1909156,-0.003082478413877298
1743758654.1918914,-0.0030880077387501086
1743758654.1928673,-0.0030823582111626714
1743758654.1938434,-0.003081636994874914
1743758654.1948197,-0.0030719005749901824
1743758654.1957955,-0.0030675732772636344
1743758654.1967714,-0.0030590388845251663
1743758654.1977475,-0.0030607217225299345
1743758654.1987236,-0.0030573560465203976
1743758654.1996994,-0.003062885371393208
1743758654.2006752,-0.0030686551016952716
1743758654.2016516,-0.0030795935487262665
1743758654.2026277,-0.0030823582111626714
1743758654.2036035,-0.003087166319747724
1743758654.2045794,-0.003088488549608614
1743758654.2055554,-0.0030834400355943085
1743758654.2065315,-0.003076949089004487
1743758654.2075074,-0.003077550102577619
1743758654.2084832,-0.003074424831997335
1743758654.2094595,-0.0030732228048510717
1743758654.2104356,-0.003074424831997335
1743758654.2114115,-0.0030678136826928874
1743758654.2123873,-0.0030663712501173713
1743758654.2133634,-0.0030625247632493293
1743758654.2143395,-0.0030634863849663394
1743758654.2153153,-0.0030697369261269082
1743758654.2162914,-0.0030747854401412134
1743758654.2172675,-0.003078992535153135
1743758654.2182436,-0.0030770692917191137
1743758654.2192194,-0.0030732228048510717
1743758654.2201953,-0.003075386453714345
1743758654.2211714,-0.0030777905080068718
1743758654.2221477,-0.0030807955758725297
1743758654.2231236,-0.0030804349677286506
1743758654.2240994,-0.0030770692917191137
1743758654.2250755,-0.00307851172429463
1743758654.2260516,-0.0030770692917191137
1743758654.2270274,-0.0030763480754313556
1743758654.2280033,-0.003077550102577619
1743758654.2289793,-0.003074064223853456
1743758654.2299557,-0.0030728621967071926
1743758654.2309315,-0.0030721409804194346
1743758654.2319074,-0.0030749056428558403
1743758654.2328835,-0.0030666116555466243
1743758654.2338595,-0.003063846993110219
1743758654.2348354,-0.0030661308446881187
1743758654.2358112,-0.003069256115268403
1743758654.2367876,-0.0030719005749901824
1743758654.2377636,-0.0030705783451292924
1743758654.2387395,-0.0030699773315561608
1743758654.2397153,-0.0030719005749901824
1743758654.2406914,-0.003075747061858224
1743758654.2416675,-0.0030759874672874766
1743758654.2426434,-0.003084401657311319
1743758654.2436194,-0.0030880077387501086
1743758654.2445955,-0.003082718819306551
1743758654.2455716,-0.003091493617474272
1743758654.2465475,-0.0030876471306062296
1743758654.2475233,-0.0030823582111626714
1743758654.2484994,-0.003075626859143598
1743758654.2494755,-0.0030783915215800033
1743758654.2504516,-0.0030821178057334193
1743758654.2514274,-0.0030780309134361243
1743758654.2524035,-0.0030833198328796825
1743758654.2533796,-0.003090291590328009
1743758654.2543554,-0.003085723887172209
1743758654.2553313,-0.003075626859143598
1743758654.2563074,-0.003071059155987798
1743758654.2572837,-0.0030585580736666607
1743758654.2582595,-0.00304617719406015
1743758654.2592354,-0.0030468984103479077
1743758654.2602115,-0.0030474994239210393
1743758654.2611876,-0.0030478600320649183
1743758654.2621634,-0.003053749965081608
1743758654.2631392,-0.0030632459795370873
1743758654.2641156,-0.0030634863849663394
1743758654.2650917,-0.0030667318582612503
1743758654.2660675,-0.003058077262808155
1743758654.2670434,-0.003052187329791466
1743758654.2680194,-0.0030574762492350236
1743758654.2689955,-0.003062765168678582
1743758654.2699714,-0.003071539966846303
1743758654.2709472,-0.003071539966846303
1743758654.2719235,-0.0030676934799782605
1743758654.2728996,-0.0030678136826928874
1743758654.2738755,-0.0030719005749901824
1743758654.2748513,-0.003076708683575235
1743758654.2758274,-0.00307851172429463
1743758654.2768035,-0.003075506656428972
1743758654.2777793,-0.0030667318582612503
1743758654.2787554,-0.003067332871834382
1743758654.2797315,-0.0030709389532731714
1743758654.2807076,-0.003071299561417051
1743758654.2816834,-0.00308404104916744
1743758654.2826593,-0.003093056252764414
1743758654.2836354,-0.003098465374922598
1743758654.2846117,-0.0031007492265004983
1743758654.2855875,-0.0031095240246682195
1743758654.2865634,-0.0031082017948073303
1743758654.2875395,-0.003103273483507651
1743758654.2885156,-0.0030906521984718875
1743758654.2894914,-0.003071179358702424
1743758654.2904673,-0.003063125776822461
1743758654.2914433,-0.003055673208515629
1743758654.2924197,-0.003049422667355061
1743758654.2933955,-0.0030488216537819294
1743758654.2943714,-0.0030509853026452027
1743758654.2953475,-0.0030539903705108606
1743758654.2963235,-0.0030585580736666607
1743758654.2972994,-0.0030581974655227817
1743758654.2982752,-0.003059760100812924
1743758654.2992516,-0.003065049020256482
1743758654.3002276,-0.0030833198328796825
1743758654.3012035,-0.0030800743595847716
1743758654.3021793,-0.0030815167921602877
1743758654.3031554,-0.00308175719758954
1743758654.3041315,-0.003081997603018793
1743758654.3051074,-0.0030830794274504295
1743758654.3060834,-0.0030793531432970135
1743758654.3070595,-0.003085964292601461
1743758654.3080356,-0.0030815167921602877
1743758654.3090115,-0.0030868057116038455
1743758654.3099873,-0.003085844089886835
1743758654.3109634,-0.0030868057116038455
1743758654.3119395,-0.003087046117033098
1743758654.3129156,-0.003085844089886835
1743758654.3138914,-0.0030853632790283293
1743758654.3148675,-0.003087046117033098
1743758654.3158436,-0.0030818774003041663
1743758654.3168194,-0.0030830794274504295
1743758654.3177953,-0.003082959224735803
1743758654.3187714,-0.0030866855088892194
1743758654.3197477,-0.003085723887172209
1743758654.3207235,-0.0030864451034599664
1743758654.3216994,-0.0030803147650140246
1743758654.3226755,-0.003080675373157903
1743758654.3236516,-0.0030854834817429563
1743758654.3246274,-0.0030815167921602877
1743758654.3256032,-0.003082959224735803
1743758654.3265796,-0.0030780309134361243
1743758654.3275557,-0.0030735834129949503
1743758654.3285315,-0.003075506656428972
1743758654.3295074,-0.0030800743595847716
1743758654.3304834,-0.0030807955758725297
1743758654.3314595,-0.003083920846452814
1743758654.3324354,-0.003084401657311319
1743758654.3334112,-0.003083680441023561
1743758654.3343875,-0.0030856036844575823
1743758654.3353636,-0.0030830794274504295
1743758654.3363395,-0.0030761076700021035
1743758654.3373153,-0.0030833198328796825
1743758654.3382914,-0.0030848824681698243
1743758654.3392675,-0.0030906521984718875
1743758654.3402433,-0.0030970229423470824
1743758654.3412194,-0.003094138077196051
1743758654.3421955,-0.003097263347776335
1743758654.3431716,-0.0030887289550378667
1743758654.3441474,-0.003083199630165056
1743758654.3451233,-0.0030835602383089346
1743758654.3460994,-0.003079833954155519
1743758654.3470757,-0.0030774298998629927
1743758654.3480515,-0.0030822380084480454
1743758654.3490274,-0.003080675373157903
1743758654.3500035,-0.0030830794274504295
1743758654.3509796,-0.0030807955758725297
1743758654.3519554,-0.0030846420627405717
1743758654.3529313,-0.0030822380084480454
1743758654.3539073,-0.0030702177369854138
1743758654.3548837,-0.00307033793970004
1743758654.3558595,-0.003074424831997335
1743758654.3568354,-0.003076828886289861
1743758654.3578115,-0.003076708683575235
1743758654.3587875,-0.0030776703052922453
1743758654.3597634,-0.003075266250999719
1743758654.3607392,-0.0030758672645728505
1743758654.3617156,-0.0030811561840164083
1743758654.3626916,-0.003086925914318472
1743758654.3636675,-0.0030825986165919244
1743758654.3646433,-0.003076949089004487
1743758654.3656194,-0.003079713751440893
1743758654.3665955,-0.003078992535153135
1743758654.3675714,-0.0030749056428558403
1743758654.3685474,-0.0030777905080068718
1743758654.3695235,-0.003071179358702424
1743758654.3704996,-0.0030706985478439193
1743758654.3714755,-0.00307033793970004
1743758654.3724513,-0.003075747061858224
1743758654.3734274,-0.003072501588563314
1743758654.3744035,-0.003071539966846303
1743758654.3753796,-0.0030674530745490084
1743758654.3763554,-0.0030717803722755555
1743758654.3773315,-0.003075506656428972
1743758654.3783076,-0.0030709389532731714
1743758654.3792834,-0.0030735834129949503
1743758654.3802593,-0.0030690157098391506
1743758654.3812354,-0.003075506656428972
1743758654.3822117,-0.0030704581424146663
1743758654.3831875,-0.003073463210280324
1743758654.3841634,-0.0030763480754313556
1743758654.3851395,-0.0030783915215800033
1743758654.3861156,-0.0030763480754313556
1743758654.3870914,-0.003071179358702424
1743758654.3880672,-0.0030731026021364456
1743758654.3890436,-0.0030721409804194346
1743758654.3900197,-0.0030720207777048085
1743758654.3909955,-0.0030721409804194346
1743758654.3919713,-0.0030758672645728505
1743758654.3929474,-0.0030731026021364456
1743758654.3939235,-0.0030702177369854138
1743758654.3948994,-0.0030708187505585453
1743758654.3958752,-0.0030721409804194346
1743758654.3968515,-0.0030751460482850925
1743758654.3978276,-0.0030731026021364456
1743758654.3988035,-0.003075266250999719
1743758654.3997793,-0.003075626859143598
1743758654.4007554,-0.0030743046292827088
1743758654.4017315,-0.0030690157098391506
1743758654.4027073,-0.003074064223853456
1743758654.4036834,-0.0030691359125537766
1743758654.4046595,-0.0030704581424146663
1743758654.4056356,-0.0030645682093979765
1743758654.4066114,-0.0030704581424146663
1743758654.4075873,-0.00306216415510545
1743758654.4085634,-0.0030633661822517134
1743758654.4095397,-0.00306120253338844
1743758654.4105155,-0.00305759645194965
1743758654.4114914,-0.0030554328030863768
1743758654.4124675,-0.003055192397657124
1743758654.4134436,-0.003053389356937729
1743758654.4144194,-0.003055673208515629
1743758654.4153953,-0.0030489418564965554
1743758654.4163713,-0.0030518267216475873
1743758654.4173477,-0.0030530287487938504
1743758654.4183235,-0.0030513459107890818
1743758654.4192994,-0.0030519469243622133
1743758654.4202754,-0.003055913613944882
1743758654.4212515,-0.0030581974655227817
1743758654.4222274,-0.00305663483023264
1743758654.4232032,-0.003056755032947266
1743758654.4241796,-0.0030584378709520347
1743758654.4251556,-0.003058678276381287
1743758654.4261315,-0.003062043952390824
1743758654.4271073,-0.003059399492669045
1743758654.4280834,-0.003053870167796234
1743758654.4290595,-0.0030489418564965554
1743758654.4300354,-0.003047619626635666
1743758654.4310114,-0.003050504491786697
1743758654.4319875,-0.0030446145587700083
1743758654.4329636,-0.0030425711126213606
1743758654.4339395,-0.00304389334248225
1743758654.4349153,-0.0030455761804870185
1743758654.4358914,-0.003049542870069687
1743758654.4368675,-0.003052547937935345
1743758654.4378436,-0.003053629762366982
1743758654.4388194,-0.003053629762366982
1743758654.4397955,-0.0030530287487938504
1743758654.4407716,-0.003048220640208798
1743758654.4417474,-0.00304617719406015
1743758654.4427233,-0.0030459367886308975
1743758654.4436994,-0.003046297396774776
1743758654.4446757,-0.003044253950626129
1743758654.4456515,-0.003044975166913887
1743758654.4466274,-0.0030488216537819294
1743758654.4476035,-0.003046297396774776
1743758654.4485795,-0.003053749965081608
1743758654.4495554,-0.003049422667355061
1743758654.4505312,-0.0030565146275180134
1743758654.4515076,-0.0030557934112302554
1743758654.4524837,-0.003056875235661892
1743758654.4534595,-0.0030470186130625346
1743758654.4544353,-0.003047619626635666
1743758654.4554114,-0.0030490620592111815
1743758654.4563875,-0.003049663072784313
1743758654.4573634,-0.0030490620592111815
1743758654.4583392,-0.0030456963832016445
1743758654.4593155,-0.0030485812483526764
1743758654.4602916,-0.0030531489515084765
1743758654.4612675,-0.00305663483023264
1743758654.4622433,-0.003057836857378903
1743758654.4632194,-0.0030518267216475873
1743758654.4641955,-0.003049663072784313
1743758654.4651713,-0.0030527883433645975
1743758654.4661474,-0.0030499034782135656
1743758654.4671235,-0.0030595196953836713
1743758654.4680996,-0.003071539966846303
1743758654.4690754,-0.003060962127959187
1743758654.4700513,-0.0030544711813693657
1743758654.4710274,-0.0030539903705108606
1743758654.4720037,-0.0030603611143860555
1743758654.4729795,-0.003068294493551392
1743758654.4739554,-0.003069616723412282
1743758654.4749315,-0.0030648086148272295
1743758654.4759076,-0.0030518267216475873
1743758654.4768834,-0.0030472590184917867
1743758654.4778593,-0.0030488216537819294
1743758654.4788353,-0.0030429317207652396
1743758654.4798117,-0.0030372821931778024
1743758654.4807875,-0.003033796314453639
1743758654.4817634,-0.003031873071019618
1743758654.4827394,-0.0030354791524584077
1743758654.4837155,-0.003030791246587981
1743758654.4846914,-0.0030311518547318605
1743758654.4856672,-0.003039205436611823
1743758654.4866436,-0.0030331953008805074
1743758654.4876196,-0.0030351185443145286
1743758654.4885955,-0.0030329548954512553
1743758654.4895713,-0.0030238194891396546
1743758654.4905474,-0.0030279063814369496
1743758654.4915235,-0.0030329548954512553
1743758654.4924994,-0.0030292286112978393
1743758654.4934754,-0.0030282669895808287
1743758654.4944515,-0.0030297094221563444
1743758654.4954276,-0.0030323538818781237
1743758654.4964035,-0.0030362003687461653
1743758654.4973793,-0.0030386044230386916
1743758654.4983554,-0.0030383640176094395
1743758654.4993315,-0.0030497832754989396
1743758654.5003076,-0.0030515863162183343
1743758654.5012834,-0.003055553005801003
1743758654.5022595,-0.0030625247632493293
1743758654.5032356,-0.003059760100812924
1743758654.5042114,-0.003053749965081608
1743758654.5051873,-0.0030543509786547397
1743758654.5061634,-0.003053749965081608
1743758654.5071397,-0.0030584378709520347
1743758654.5081155,-0.0030585580736666607
1743758654.5090914,-0.0030577166546642766
1743758654.5100675,-0.003054591384083992
1743758654.5110435,-0.0030569954383765185
1743758654.5120194,-0.0030531489515084765
1743758654.5129952,-0.0030574762492350236
1743758654.5139716,-0.0030543509786547397
1743758654.5149477,-0.0030512257080744557
1743758654.5159235,-0.003040768071901966
1743758654.5168993,-0.003033676111739013
1743758654.5178754,-0.003031873071019618
1743758654.5188515,-0.003030550841158729
1743758654.5198274,-0.003031873071019618
1743758654.5208032,-0.0030363205714607922
1743758654.5217795,-0.003037883206750934
1743758654.5227556,-0.003033796314453639
1743758654.5237315,-0.0030309114493026076
1743758654.5247073,-0.0030363205714607922
1743758654.5256834,-0.0030386044230386916
1743758654.5266595,-0.003033796314453639
1743758654.5276356,-0.0030301902330148495
1743758654.5286114,-0.0030269447597199395
1743758654.5295875,-0.003028026584151576
1743758654.5305636,-0.003025382124429797
1743758654.5315394,-0.0030257427325736763
1743758654.5325153,-0.0030365609768900448
1743758654.5334914,-0.003038965031182571
1743758654.5344677,-0.003033676111739013
1743758654.5354435,-0.0030372821931778024
1743758654.5364194,-0.00304389334248225
1743758654.5373955,-0.003047980234779545
1743758654.5383716,-0.0030520671270768394
1743758654.5393474,-0.0030589186818105398
1743758654.5403233,-0.003062043952390824
1743758654.5412993,-0.0030585580736666607
1743758654.5422757,-0.0030517065189329604
1743758654.5432515,-0.003037883206750934
1743758654.5442274,-0.003026343746146808
1743758654.5452034,-0.0030283871922954547
1743758654.5461795,-0.00303704178774855
1743758654.5471554,-0.0030292286112978393
1743758654.5481312,-0.003023579083710402
1743758654.5491076,-0.0030341569225975184
1743758654.5500836,-0.0030547115867986187
1743758654.5510595,-0.003055192397657124
1743758654.5520353,-0.0030517065189329604
1743758654.5530114,-0.003038123612180187
1743758654.5539875,-0.003034998341599902
1743758654.5549634,-0.00302658415157606
1743758654.5559394,-0.003014804285542681
1743758654.5569155,-0.0029883596883248913
1743758654.5578916,-0.002994850634914712
1743758654.5588675,-0.003001581986933786
1743758654.5598433,-0.0030126406366794076
1743758654.5608194,-0.0030164871235474496
1743758654.5617955,-0.0030168477316913286
1743758654.5627716,-0.0030209346239886237
1743758654.5637474,-0.0030240598945689076
1743758654.5647235,-0.0030238194891396546
1743758654.5656996,-0.003029469016727092
1743758654.5666754,-0.00302430029999816
1743758654.5676513,-0.003030550841158729
1743758654.5686274,-0.003036801382319297
1743758654.5696037,-0.003037883206750934
1743758654.5705795,-0.003015886109974318
1743758654.5715554,-0.003013241650252539
1743758654.5725315,-0.0030197325968423596
1743758654.5735075,-0.003019011380554602
1743758654.5744834,-0.0030281467868662026
1743758654.5754592,-0.003027545773293071
1743758654.5764356,-0.0030288680031539603
1743758654.5774117,-0.003032233679163497
1743758654.5783875,-0.0030437731397676237
1743758654.5793633,-0.0030416094909043495
1743758654.5803394,-0.003047619626635666
1743758654.5813155,-0.0030473792212064132
1743758654.5822914,-0.0030471388157771607
1743758654.5832672,-0.0030271851651491916
1743758654.5842435,-0.003012159825820902
1743758654.5852196,-0.0029949708376293387
1743758654.5861955,-0.0030021830005069177
1743758654.5871713,-0.003004947662943323
1743758654.5881474,-0.0030073517172358494
1743758654.5891235,-0.0030099961769576283
1743758654.5900996,-0.0030131214475379122
1743758654.5910754,-0.0030156457045450655
1743758654.5920515,-0.0030185305696960965
1743758654.5930276,-0.003019251785983855
1743758654.5940034,-0.0030214154348471283
1743758654.5949793,-0.0030239396918542816
1743758654.5959554,-0.0030211750294178758
1743758654.5969317,-0.003014684082828055
1743758654.5979075,-0.0030142032719695493
1743758654.5988834,-0.003011799217677023
1743758654.5998595,-0.0030136022583964178
1743758654.6008356,-0.0030126406366794076
1743758654.6018114,-0.0030140830692549233
1743758654.6027873,-0.0030155255018304386
1743758654.6037633,-0.0030173285425498333
1743758654.6047397,-0.0030176891506937128
1743758654.6057155,-0.003024660908142039
1743758654.6066914,-0.0030214154348471283
1743758654.6076674,-0.0030224972592787654
1743758654.6086435,-0.003030791246587981
1743758654.6096194,-0.003020333610415492
1743758654.6105952,-0.003011438609533144
1743758654.6115716,-0.003030310435729476
1743758654.6125476,-0.003042450909906734
1743758654.6135235,-0.0030489418564965554
1743758654.6144993,-0.003052547937935345
1743758654.6154754,-0.003049542870069687
1743758654.6164515,-0.003040888274616592
1743758654.6174273,-0.0030351185443145286
1743758654.6184034,-0.003034998341599902
1743758654.6193795,-0.003031512462875739
1743758654.6203556,-0.0030300700303002234
1743758654.6213315,-0.003020213407700865
1743758654.6223073,-0.003017929556122965
1743758654.6232834,-0.0030226174619933915
1743758654.6242595,-0.003021896245705634
1743758654.6252356,-0.00302333867828115
1743758654.6262114,-0.0030236992864250286
1743758654.6271875,-0.0030288680031539603
1743758654.6281636,-0.003029829624870971
1743758654.6291394,-0.0030323538818781237
1743758654.6301153,-0.0030297094221563444
1743758654.6310914,-0.003031752868304992
1743758654.6320677,-0.0030255023271444233
1743758654.6330435,-0.00302430029999816
1743758654.6340194,-0.003026103340717555
1743758654.6349955,-0.0030241800972835337
1743758654.6359715,-0.0030281467868662026
1743758654.6369474,-0.003030791246587981
1743758654.6379232,-0.0030301902330148495
1743758654.6388996,-0.003029829624870971
1743758654.6398757,-0.0030319932737342442
1743758654.6408515,-0.003034036719882892
1743758654.6418273,-0.0030358397606022867
1743758654.6428034,-0.0030346377334560235
1743758654.6437795,-0.003035959963316913
1743758654.6447554,-0.00303475793617065
1743758654.6457312,-0.0030319932737342442
1743758654.6467075,-0.0030311518547318605
1743758654.6476836,-0.0030329548954512553
1743758654.6486595,-0.003034998341599902
1743758654.6496353,-0.0030339165171682655
1743758654.6506114,-0.003032594287307376
1743758654.6515875,-0.0030312720574464866
1743758654.6525636,-0.0030351185443145286
1743758654.6535394,-0.0030371619904631763
1743758654.6545155,-0.0030324740845927498
1743758654.6554916,-0.0030329548954512553
1743758654.6564674,-0.0030331953008805074
1743758654.6574433,-0.00303475793617065
1743758654.6584194,-0.003032594287307376
1743758654.6593957,-0.003029469016727092
1743758654.6603715,-0.0030327144900220023
1743758654.6613474,-0.00303704178774855
1743758654.6623235,-0.0030365609768900448
1743758654.6632996,-0.0030388448284679446
1743758654.6642754,-0.0030395660447557027
1743758654.6652513,-0.0030446145587700083
1743758654.6662273,-0.0030535095596523555
1743758654.6672037,-0.003062404560534703
1743758654.6681795,-0.003062404560534703
1743758654.6691554,-0.0030600005062421764
1743758654.6701314,-0.0030592792899544184
1743758654.6711075,-0.00305988030352755
1743758654.6720834,-0.003044975166913887
1743758654.6730592,-0.003029108408583213
1743758654.6740355,-0.003016366920832823
1743758654.6750116,-0.003016006312688944
1743758654.6759875,-0.003030310435729476
1743758654.6769633,-0.0030374023958924285
1743758654.6779394,-0.0030459367886308975
1743758654.6789155,-0.0030508650999305762
1743758654.6798913,-0.003054831789513245
1743758654.6808674,-0.0030549519922278712
1743758654.6818435,-0.0030485812483526764
1743758654.6828196,-0.003025021516285918
1743758654.6837955,-0.0030167275289767017
1743758654.6847713,-0.0030036254330824334
1743758654.6857474,-0.0030041062439409385
1743758654.6867235,-0.0030083133389528596
1743758654.6876996,-0.003001221378789907
1743758654.6886754,-0.0029946102294854597
1743758654.6896515,-0.0029995385407851384
1743758654.6906276,-0.0030009809733606545
1743758654.6916034,-0.003005789081945707
1743758654.6925793,-0.0030095153660991227
1743758654.6935554,-0.0030169679344059547
1743758654.6945317,-0.0030142032719695493
1743758654.6955075,-0.0030096355688137492
1743758654.6964834,-0.0030085537443821126
1743758654.6974595,-0.0030157659072596915
1743758654.6984355,-0.0030198527995569865
1743758654.6994114,-0.0030198527995569865
1743758654.7003872,-0.003027665976007697
1743758654.7013636,-0.0030358397606022867
1743758654.7023396,-0.00303704178774855
1743758654.7033155,-0.0030396862474703287
1743758654.7042913,-0.003045335775057766
1743758654.7052674,-0.0030518267216475873
1743758654.7062435,-0.0030371619904631763
1743758654.7072194,-0.003033315503595134
1743758654.7081952,-0.003030791246587981
1743758654.7091715,-0.0030249013135712917
1743758654.7101476,-0.0030297094221563444
1743758654.7111235,-0.003027545773293071
1743758654.7120993,-0.003014924488257307
1743758654.7130754,-0.002992927391480691
1743758654.7140515,-0.0029968940810633595
1743758654.7150276,-0.003010957798674639
1743758654.7160034,-0.0030152850964011864
1743758654.7169795,-0.00301612651540357
1743758654.7179556,-0.003016246718118197
1743758654.7189314,-0.003017809353408339
1743758654.7199073,-0.0030166073262620757
1743758654.7208834,-0.0030212952321325023
1743758654.7218597,-0.0030174487452644602
1743758654.7228355,-0.003013361852967165
1743758654.7238114,-0.003013722461111044
1743758654.7247875,-0.0030227376647080184
1743758654.7257636,-0.003023098272851897
1743758654.7267394,-0.003022377056564139
1743758654.7277153,-0.0030209346239886237
1743758654.7286913,-0.003020093204986239
1743758654.7296677,-0.003014684082828055
1743758654.7306435,-0.0030182901642668443
1743758654.7316194,-0.0030164871235474496
1743758654.7325954,-0.0030127608393940336
1743758654.7335715,-0.0030140830692549233
1743758654.7345474,-0.003016366920832823
1743758654.7355232,-0.0030111982041038914
1743758654.7364995,-0.003007952730808981
1743758654.7374756,-0.0030061496900895862
1743758654.7384515,-0.0030085537443821126
1743758654.7394273,-0.0030068709063773443
1743758654.7404034,-0.003008794149811365
1743758654.7413795,-0.0030073517172358494
1743758654.7423553,-0.00300470725751407
1743758654.7433314,-0.003011919420391649
1743758654.7443075,-0.003014924488257307
1743758654.7452836,-0.00301288104210866
1743758654.7462595,-0.003010717393245386
1743758654.7472353,-0.003011799217677023
1743758654.7482114,-0.0030069911090919704
1743758654.7491875,-0.0030099961769576283
1743758654.7501636,-0.0030126406366794076
1743758654.7511394,-0.0030115588122477705
1743758654.7521155,-0.0030085537443821126
1743758654.7530916,-0.0030111982041038914
1743758654.7540674,-0.0030095153660991227
1743758654.7550433,-0.003010717393245386
1743758654.7560194,-0.003007952730808981
1743758654.7569957,-0.003006750703662718
1743758654.7579715,-0.003011799217677023
1743758654.7589474,-0.0030143234746841754
1743758654.7599235,-0.0030126406366794076
1743758654.7608995,-0.0030101163796722543
1743758654.7618754,-0.003010717393245386
1743758654.7628512,-0.0030115588122477705
1743758654.7638276,-0.0030097557715283757
1743758654.7648036,-0.0030085537443821126
1743758654.7657795,-0.0030124002312501546
1743758654.7667553,-0.0030134820556817917
1743758654.7677314,-0.003011438609533144
1743758654.7687075,-0.0030111982041038914
1743758654.7696834,-0.003014684082828055
1743758654.7706594,-0.003010957798674639
1743758654.7716355,-0.003011438609533144
1743758654.7726116,-0.003010957798674639
1743758654.7735875,-0.0030083133389528596
1743758654.7745633,-0.003005668879231081
1743758654.7755394,-0.003009875974243002
1743758654.7765155,-0.0030092749606698706
1743758654.7774916,-0.003014804285542681
1743758654.7784674,-0.003012039623106276
1743758654.7794435,-0.003013722461111044
1743758654.7804196,-0.003013001244823286
1743758654.7813954,-0.0030169679344059547
1743758654.7823713,-0.003016366920832823
1743758654.7833474,-0.00301612651540357
1743758654.7843237,-0.0030184103669814704
1743758654.7852995,-0.003023458880995776
1743758654.7862754,-0.0030209346239886237
1743758654.7872515,-0.0030226174619933915
1743758654.7882276,-0.0030211750294178758
1743758654.7892034,-0.003022377056564139
1743758654.7901793,-0.0030194921914131075
1743758654.7911553,-0.003018891177839976
1743758654.7921317,-0.003018169961552218
1743758654.7931075,-0.0030157659072596915
1743758654.7940834,-0.00301516489368656
1743758654.7950594,-0.003017088137120581
1743758654.7960355,-0.0030169679344059547
1743758654.7970114,-0.0030143234746841754
1743758654.7979872,-0.0030164871235474496
1743758654.7989635,-0.003017809353408339
1743758654.7999396,-0.003019251785983855
1743758654.8009155,-0.003020574015844744
1743758654.8018913,-0.003022256853849513
1743758654.8028674,-0.003020574015844744
1743758654.8038435,-0.003017088137120581
1743758654.8048193,-0.0030240598945689076
1743758654.8057954,-0.0030211750294178758
1743758654.8067715,-0.0030156457045450655
1743758654.8077476,-0.00301059719053076
1743758654.8087234,-0.0030194921914131075
1743758654.8096993,-0.003026463948861434
1743758654.8106754,-0.0030197325968423596
1743758654.8116515,-0.003026103340717555
1743758654.8126276,-0.003023579083710402
1743758654.8136034,-0.0030283871922954547
1743758654.8145795,-0.003020453813130118
1743758654.8155556,-0.0030173285425498333
1743758654.8165314,-0.003017929556122965
1743758654.8175073,-0.003020333610415492
1743758654.8184834,-0.0030182901642668443
1743758654.8194597,-0.003026103340717555
1743758654.8204355,-0.003024420502712786
1743758654.8214114,-0.003027425570578444
1743758654.8223875,-0.003025021516285918
1743758654.8233635,-0.0030289882058685863
1743758654.8243394,-0.0030360801660315392
1743758654.8253152,-0.003052187329791466
1743758654.8262916,-0.0030577166546642766
1743758654.8272676,-0.0030634863849663394
1743758654.8282435,-0.0030485812483526764
1743758654.8292193,-0.0030365609768900448
1743758654.8301954,-0.0030400468556142078
1743758654.8311715,-0.003031752868304992
1743758654.8321474,-0.0030212952321325023
1743758654.8331234,-0.0030257427325736763
1743758654.8340995,-0.0030283871922954547
1743758654.8350756,-0.0030187709751253494
1743758654.8360515,-0.0030198527995569865
1743758654.8370273,-0.0030321134764488707
1743758654.8380034,-0.0030288680031539603
1743758654.8389795,-0.003023218475566523
1743758654.8399556,-0.003012159825820902
1743758654.8409314,-0.003003505230367807
1743758654.8419075,-0.003008914352525991
1743758654.8428836,-0.003003024419509302
1743758654.8438594,-0.0030038658385116864
1743758654.8448353,-0.0030071113118065964
1743758654.8458114,-0.0030050678656579496
1743758654.8467877,-0.0030036254330824334
1743758654.8477635,-0.003003024419509302
1743758654.8487394,-0.0030021830005069177
1743758654.8497155,-0.0030051880683725756
1743758654.8506916,-0.0030096355688137492
1743758654.8516674,-0.0030174487452644602
1743758654.8526433,-0.0030182901642668443
1743758654.8536193,-0.003023218475566523
1743758654.8545957,-0.0030268245570053125
1743758654.8555715,-0.0030297094221563444
1743758654.8565474,-0.0030289882058685863
1743758654.8575234,-0.0030364407741754183
1743758654.8584995,-0.003035959963316913
1743758654.8594754,-0.0030172083398352072
1743758654.8604512,-0.0029998991489290174
1743758654.8614275,-0.0029840323905983433
1743758654.8624036,-0.002975137389715996
1743758654.8633795,-0.0029792242820132907
1743758654.8643553,-0.0029882394856102644
1743758654.8653314,-0.0029985769190681282
1743758654.8663075,-0.003004947662943323
1743758654.8672833,-0.003009154757955244
1743758654.8682594,-0.003004226446655565
1743758654.8692355,-0.0030101163796722543
1743758654.8702116,-0.0030019425950776647
1743758654.8711874,-0.002995812256631723
1743758654.8721633,-0.003005789081945707
1743758654.8731394,-0.0030319932737342442
1743758654.8741155,-0.0030549519922278712
1743758654.8750916,-0.0030577166546642766
1743758654.8760674,-0.0030211750294178758
1743758654.8770435,-0.002998937527212007
1743758654.8780196,-0.0030038658385116864
1743758654.8789954,-0.0029881192828956384
1743758654.8799713,-0.0029025349500817004
1743758654.8809474,-0.0028230809557137034
1743758654.8819237,-0.002778605951301966
1743758654.8828995,-0.0027768029105825712
1743758654.8838754,-0.002809017238102425
1743758654.8848515,-0.002855054877804304
1743758654.8858275,-0.0029152764378320897
1743758654.8868034,-0.002971050497418701
1743758654.8877792,-0.003001221378789907
1743758654.8887556,-0.003005668879231081
1743758654.8897316,-0.0030154052991158125
1743758654.8907075,-0.003041128680045845
1743758654.8916833,-0.0030532691542231026
1743758654.8926594,-0.0030625247632493293
1743758654.8936355,-0.003027665976007697
1743758654.8946114,-0.0029822293498789486
1743758654.8955874,-0.0029720121191357117
1743758654.8965635,-0.0029678050241237906
1743758654.8975396,-0.002953500901083259
1743758654.8985155,-0.0029649201589727592
1743758654.8994913,-0.002972853538138096
1743758654.9004674,-0.002979344484727917
1743758654.9014435,-0.0029847536068861014
1743758654.9024196,-0.0029870374584640013
1743758654.9033954,-0.002985835431317738
1743758654.9043715,-0.002986556647605496
1743758654.9053476,-0.0029911243507612963
1743758654.9063234,-0.0029998991489290174
1743758654.9072993,-0.0030019425950776647
1743758654.9082754,-0.0029954516484878443
1743758654.9092517,-0.0029978557027803706
1743758654.9102275,-0.0029923263779075594
1743758654.9112034,-0.002993167796909944
1743758654.9121795,-0.0029810273227326854
1743758654.9131556,-0.0029634777263972435
1743758654.9141314,-0.0029298209663018745
1743758654.9151073,-0.0028899136650459363
1743758654.9160836,-0.0028692387981302096
1743758654.9170597,-0.0028562569049505673
1743758654.9180355,-0.0028444770389171887
1743758654.9190114,-0.00283365879460082
1743758654.9199874,-0.002817551630840893
1743758654.9209635,-0.002811301089680325
1743758654.9219394,-0.0028138253466874776
1743758654.9229152,-0.0028105798733925667
1743758654.9238915,-0.002822359739425946
1743758654.9248676,-0.0028501265665046255
1743758654.9258435,-0.0028899136650459363
1743758654.9268193,-0.0029200845464171423
1743758654.9277954,-0.0029581888069536853
1743758654.9287715,-0.002994009215912328
1743758654.9297473,-0.0029964132702048544
1743758654.9307234,-0.0030138426638256707
1743758654.9316995,-0.0030238194891396546
1743758654.9326756,-0.003034878138885276
1743758654.9336514,-0.0030400468556142078
1743758654.9346273,-0.003043172126194492
1743758654.9356034,-0.0030417296936189765
1743758654.9365795,-0.003041248882760471
1743758654.9375556,-0.0030413690854750974
1743758654.9385314,-0.003042330707192108
1743758654.9395075,-0.003047619626635666
1743758654.9404836,-0.003034878138885276
1743758654.9414594,-0.0030354791524584077
1743758654.9424353,-0.003030550841158729
1743758654.9434114,-0.003031873071019618
1743758654.9443877,-0.0030241800972835337
1743758654.9453635,-0.0030197325968423596
1743758654.9463394,-0.0030176891506937128
1743758654.9473155,-0.0030157659072596915
1743758654.9482915,-0.00301059719053076
1743758654.9492674,-0.0030144436773988023
1743758654.9502432,-0.003010957798674639
1743758654.9512196,-0.0030187709751253494
1743758654.9521956,-0.0030206942185593707
1743758654.9531715,-0.0030241800972835337
1743758654.9541473,-0.0030270649624345655
1743758654.9551234,-0.0030312720574464866
1743758654.9560995,-0.003035238747029155
1743758654.9570754,-0.0030417296936189765
1743758654.9580514,-0.003035238747029155
1743758654.9590275,-0.0030101163796722543
1743758654.9600036,-0.0029911243507612963
1743758654.9609795,-0.0029881192828956384
1743758654.9619553,-0.0029684060376969222
1743758654.9629314,-0.0029498948196444697
1743758654.9639075,-0.0029256138712899535
1743758654.9648836,-0.002903015760940205
1743758654.9658594,-0.0029055400179473583
1743758654.9668355,-0.00290614103152049
1743758654.9678116,-0.0029026551527963265
1743758654.9687874,-0.0028977268414966477
1743758654.9697633,-0.002899049071357537
1743758654.9707394,-0.002900010693074547
1743758654.9717157,-0.002896164206206505
1743758654.9726915,-0.002896885422494263
1743758654.9736674,-0.002896044003491879
1743758654.9746435,-0.002903015760940205
1743758654.9756196,-0.002910588531961663
1743758654.9765954,-0.0029203249518463953
1743758654.9775712,-0.002939677588901232
1743758654.9785476,-0.002947009954493438
1743758654.9795237,-0.002952539279366248
1743758654.9804995,-0.0029652807671166383
1743758654.9814754,-0.002975618200574501
1743758654.9824514,-0.002979344484727917
1743758654.9834275,-0.002981387930876565
1743758654.9844034,-0.0029791040792986646
1743758654.9853792,-0.0029776616467231485
1743758654.9863555,-0.002981508133591191
1743758654.9873316,-0.002980666714588807
1743758654.9883075,-0.002987878877466386
1743758654.9892833,-0.0029926869860514385
1743758654.9902594,-0.0029926869860514385
1743758654.9912355,-0.0029914849589051753
1743758654.9922113,-0.0029894415127565276
1743758654.9931874,-0.0029875182693225068
1743758654.9941635,-0.0029817485390204435
1743758654.9951396,-0.002974295970713612
1743758654.9961154,-0.00296684340240678
1743758654.9970913,-0.0029586696178121904
1743758654.9980674,-0.0029497746169298428
1743758654.9990437,-0.002952178671222369
1743758655.0000196,-0.0029486927924982065
1743758655.0009954,-0.002948332184354327
1743758655.0019715,-0.0029507362386468534
1743758655.0029476,-0.002965521172545891
1743758655.0039234,-0.002987638472037133
1743758655.0048993,-0.0030085537443821126
1743758655.0058753,-0.0030224972592787654
1743758655.0068517,-0.0030330750981658813
1743758655.0078275,-0.00304389334248225
1743758655.0088034,-0.003032834692736629
1743758655.0097795,-0.0030324740845927498
1743758655.0107555,-0.0030309114493026076
1743758655.0117314,-0.003022377056564139
1743758655.0127072,-0.0030152850964011864
1743758655.0136836,-0.003008673947096739
1743758655.0146596,-0.0030110780013892654
1743758655.0156355,-0.0030041062439409385
1743758655.0166113,-0.0030062698928042127
1743758655.0175874,-0.003003264824938555
1743758655.0185635,-0.003001341581504533
1743758655.0195394,-0.0029976152973511176
1743758655.0205154,-0.0029990577299266337
1743758655.0214915,-0.002991845567049054
1743758655.0224676,-0.002998937527212007
1743758655.0234435,-0.0029986971217827543
1743758655.0244193,-0.002992085972478307
1743758655.0253954,-0.0029883596883248913
1743758655.0263715,-0.002981147525447312
1743758655.0273476,-0.0029801859037303017
1743758655.0283234,-0.0029870374584640013
1743758655.0292995,-0.002981387930876565
1743758655.0302756,-0.0029809071200180594
1743758655.0312514,-0.00297273333542347
1743758655.0322273,-0.002962756510109485
1743758655.0332034,-0.002962516104680233
1743758655.0341797,-0.002972132321850338
1743758655.0351555,-0.002969848470272438
1743758655.0361314,-0.00297141110556258
1743758655.0371075,-0.0029715313082772066
1743758655.0380836,-0.002973214146281975
1743758655.0390594,-0.0029724929299942172
1743758655.0400352,-0.0029745363761428645
1743758655.0410116,-0.0029736949571404804
1743758655.0419877,-0.00297958489015717
1743758655.0429635,-0.002978623268440159
1743758655.0439394,-0.0029807869173034333
1743758655.0449154,-0.002978503065725533
1743758655.0458915,-0.002977421241293896
1743758655.0468674,-0.002975257592430622
1743758655.0478432,-0.0029643191453996276
1743758655.0488195,-0.002958068604239059
1743758655.0497956,-0.0029605928612462117
1743758655.0507715,-0.002954342320085643
1743758655.0517473,-0.002948091778925075
1743758655.0527234,-0.002948332184354327
1743758655.0536995,-0.0029476109680665694
1743758655.0546753,-0.0029498948196444697
1743758655.0556514,-0.0029526594820808746
1743758655.0566275,-0.0029575877933805538
1743758655.0576036,-0.002955303941802654
1743758655.0585794,-0.0029593908340999485
1743758655.0595553,-0.002950976644076106
1743758655.0605314,-0.002958309009668312
1743758655.0615077,-0.0029616746856778483
1743758655.0624835,-0.0029720121191357117
1743758655.0634594,-0.002978623268440159
1743758655.0644355,-0.002985595025888486
1743758655.0654116,-0.002990282931758912
1743758655.0663874,-0.0029913647561905492
1743758655.0673633,-0.002996052662060976
1743758655.0683393,-0.0030009809733606545
1743758655.0693157,-0.0030083133389528596
1743758655.0702915,-0.003009875974243002
1743758655.0712674,-0.0030060294873749597
1743758655.0722435,-0.0030043466493701915
1743758655.0732195,-0.002997495094636491
1743758655.0741954,-0.0030011011760752806
1743758655.0751712,-0.0029964132702048544
1743758655.0761476,-0.002996293067490228
1743758655.0771236,-0.0029946102294854597
1743758655.0780995,-0.0029994183380705123
1743758655.0790753,-0.0029996587434997653
1743758655.0800514,-0.003000259757072897
1743758655.0810275,-0.0030006203652167755
1743758655.0820034,-0.0030050678656579496
1743758655.0829794,-0.0029996587434997653
1743758655.0839555,-0.0029976152973511176
1743758655.0849316,-0.0029955718512024703
1743758655.0859075,-0.002992927391480691
1743758655.0868833,-0.002987878877466386
1743758655.0878594,-0.0029873980666078807
1743758655.0888355,-0.0029831909715959597
1743758655.0898116,-0.0029873980666078807
1743758655.0907874,-0.0029829505661667067
1743758655.0917635,-0.002982710160737454
1743758655.0927396,-0.00298283036345208
1743758655.0937154,-0.002969007051270054
1743758655.0946913,-0.0029619150911071013
1743758655.0956674,-0.0029575877933805538
1743758655.0966437,-0.0029488129952128326
1743758655.0976195,-0.0029442452920570325
1743758655.0985954,-0.002941841237764506
1743758655.0995715,-0.00293811495361109
1743758655.1005476,-0.002940999818762122
1743758655.1015234,-0.0029400381970451114
1743758655.1024992,-0.0029485725897835796
1743758655.1034756,-0.0029561453608050376
1743758655.1044517,-0.002968285834982296
1743758655.1054275,-0.0029800657010156753
1743758655.1064034,-0.002984513201456849
1743758655.1073794,-0.0029937688104830756
1743758655.1083555,-0.002982589958022828
1743758655.1093314,-0.0029789838765840386
1743758655.1103072,-0.002977180835864644
1743758655.1112835,-0.002980306106444928
1743758655.1122596,-0.0029767000250061383
1743758655.1132355,-0.0029805465118741803
1743758655.1142113,-0.002978623268440159
1743758655.1151874,-0.002978503065725533
1743758655.1161635,-0.00297958489015717
1743758655.1171393,-0.0029821091471643225
1743758655.1181154,-0.002981147525447312
1743758655.1190915,-0.002986797053034749
1743758655.1200676,-0.002992085972478307
1743758655.1210434,-0.0029990577299266337
1743758655.1220193,-0.0029925667833368124
1743758655.1229954,-0.0029871576611786277
1743758655.1239717,-0.002988600093754144
1743758655.1249475,-0.0029893213100419015
1743758655.1259234,-0.0029923263779075594
1743758655.1268995,-0.0029947304322000858
1743758655.1278756,-0.0030006203652167755
1743758655.1288514,-0.003005668879231081
1743758655.1298273,-0.0030062698928042127
1743758655.1308033,-0.0030025436086507963
1743758655.1317797,-0.0029979759054949966
1743758655.1327555,-0.0029997789462143914
1743758655.1337314,-0.0029966536756341074
1743758655.1347075,-0.0029912445534759223
1743758655.1356835,-0.0029840323905983433
1743758655.1366594,-0.0029746565788574906
1743758655.1376352,-0.002965641375260517
1743758655.1386116,-0.002962636307394859
1743758655.1395876,-0.002959751442243827
1743758655.1405635,-0.002955784752661159
1743758655.1415393,-0.002956505968948917
1743758655.1425154,-0.0029577079960951803
1743758655.1434915,-0.0029575877933805538
1743758655.1444674,-0.0029651605644020113
1743758655.1454434,-0.0029717717137064596
1743758655.1464195,-0.002971290902847954
1743758655.1473956,-0.0029746565788574906
1743758655.1483715,-0.0029726131327088433
1743758655.1493473,-0.002972853538138096
1743758655.1503234,-0.002963838334541122
1743758655.1512995,-0.0029589100232414434
1743758655.1522756,-0.0029514574549346115
1743758655.1532514,-0.0029367927237502005
1743758655.1542275,-0.0029283785337263584
1743758655.1552036,-0.002930181574445753
1743758655.1561794,-0.0029266956957215897
1743758655.1571553,-0.0029256138712899535
1743758655.1581314,-0.0029245320468583164
1743758655.1591077,-0.002926335087577711
1743758655.1600835,-0.0029224886007096686
1743758655.1610594,-0.0029194835328440107
1743758655.1620355,-0.0029208057627049
1743758655.1630116,-0.0029266956957215897
1743758655.1639874,-0.002935710899318564
1743758655.1649632,-0.0029473705626373164
1743758655.1659396,-0.002973093943567349
1743758655.1669157,-0.0029904031344735386
1743758655.1678915,-0.0029926869860514385
1743758655.1688673,-0.0030038658385116864
1743758655.1698434,-0.0030090345552406176
1743758655.1708195,-0.003013001244823286
1743758655.1717954,-0.0030131214475379122
1743758655.1727712,-0.002995932459346349
1743758655.1737475,-0.0029851142150299805
1743758655.1747236,-0.002982710160737454
1743758655.1756995,-0.0029798252955864223
1743758655.1766753,-0.0029764596195768853
1743758655.1776514,-0.002978142457581654
1743758655.1786275,-0.002977060633150017
1743758655.1796033,-0.002977060633150017
1743758655.1805794,-0.002980426309159554
1743758655.1815555,-0.0029847536068861014
1743758655.1825316,-0.0029870374584640013
1743758655.1835074,-0.002991605161619802
1743758655.1844833,-0.002997374891921865
1743758655.1854594,-0.0030101163796722543
1743758655.1864357,-0.0030059092846603333
1743758655.1874115,-0.0029967738783487335
1743758655.1883874,-0.0029977355000657437
1743758655.1893635,-0.0029907637426174177
1743758655.1903396,-0.0029936486077684486
1743758655.1913154,-0.002980306106444928
1743758655.1922913,-0.002972372727279591
1743758655.1932673,-0.0029696080648431854
1743758655.1942437,-0.002962636307394859
1743758655.1952195,-0.0029603524558169587
1743758655.1961954,-0.002950976644076106
1743758655.1971714,-0.0029504958332176013
1743758655.1981475,-0.0029434038730546484
1743758655.1991234,-0.0029363119128916954
1743758655.2000992,-0.002936432115606322
1743758655.2010756,-0.0029391967780427273
1743758655.2020516,-0.002939797791615859
1743758655.2030275,-0.0029400381970451114
1743758655.2040033,-0.002947971576210448
1743758655.2049794,-0.0029489331979274586
1743758655.2059555,-0.002962996915538738
1743758655.2069314,-0.002972132321850338
1743758655.2079074,-0.0029735747544258543
1743758655.2088835,-0.0029822293498789486
1743758655.2098596,-0.0029925667833368124
1743758655.2108355,-0.0029817485390204435
1743758655.2118113,-0.002978142457581654
1743758655.2127874,-0.002971290902847954
1743758655.2137635,-0.002968045429553043
1743758655.2147396,-0.002960713063960838
1743758655.2157154,-0.0029559049553757855
1743758655.2166915,-0.0029473705626373164
1743758655.2176676,-0.002940999818762122
1743758655.2186434,-0.0029316240070212693
1743758655.2196193,-0.0029227290061389216
1743758655.2205954,-0.0029140744106858265
1743758655.2215717,-0.0029093865048154
1743758655.2225475,-0.0029098673156739054
1743758655.2235234,-0.002910348126532411
1743758655.2244995,-0.0029184017084123736
1743758655.2254755,-0.0029200845464171423
1743758655.2264514,-0.0029275371147239743
1743758655.2274272,-0.002933427047740664
1743758655.2284036,-0.002945206913774043
1743758655.2293797,-0.0029544625228002694
1743758655.2303555,-0.0029758586060037538
1743758655.2313313,-0.0029892011073272755
1743758655.2323074,-0.0029942496213415802
1743758655.2332835,-0.0029946102294854597
1743758655.2342594,-0.0029861960394616176
1743758655.2352352,-0.0029757384032891277
1743758655.2362115,-0.0029664827942629014
1743758655.2371876,-0.002961554482963222
1743758655.2381635,-0.0029530200902247537
1743758655.2391393,-0.002948091778925075
1743758655.2401154,-0.002944125089342406
1743758655.2410915,-0.002937754345467211
1743758655.2420673,-0.0029387159671842218
1743758655.2430434,-0.002937874548181837
1743758655.2440195,-0.002940639210618243
1743758655.2449956,-0.0029486927924982065
1743758655.2459714,-0.002955303941802654
1743758655.2469473,-0.0029621554965363534
1743758655.2479234,-0.0029787434711547856
1743758655.2488997,-0.002991605161619802
1743758655.2498755,-0.002989922323615033
1743758655.2508514,-0.0029817485390204435
1743758655.2518275,-0.002980426309159554
1743758655.2528036,-0.0029854748231738595
1743758655.2537794,-0.0029965334729194805
1743758655.2547553,-0.0029998991489290174
1743758655.2557313,-0.0029994183380705123
1743758655.2567077,-0.0030006203652167755
1743758655.2576835,-0.0029995385407851384
1743758655.2586594,-0.0030093951633844967
1743758655.2596354,-0.003019251785983855
1743758655.2606115,-0.0030215356375617552
1743758655.2615874,-0.003016006312688944
1743758655.2625632,-0.003016366920832823
1743758655.2635396,-0.00301059719053076
1743758655.2645156,-0.0030036254330824334
1743758655.2654915,-0.003001221378789907
1743758655.2664673,-0.0030043466493701915
1743758655.2674434,-0.0030020627977922917
1743758655.2684195,-0.0030024234059361703
1743758655.2693954,-0.0029983365136388752
1743758655.2703714,-0.0029953314457732173
1743758655.2713475,-0.002993047594195317
1743758655.2723236,-0.0029946102294854597
1743758655.2732995,-0.0029953314457732173
1743758655.2742753,-0.002990042526329659
1743758655.2752514,-0.0029904031344735386
1743758655.2762275,-0.0029870374584640013
1743758655.2772036,-0.0029866768503201226
1743758655.2781794,-0.0029905233371881647
1743758655.2791555,-0.0029913647561905492
1743758655.2801316,-0.00298872029646877
1743758655.2811074,-0.0029925667833368124
1743758655.2820833,-0.0029938890131977016
1743758655.2830594,-0.002990042526329659
1743758655.2840357,-0.002989802120900407
1743758655.2850115,-0.0029965334729194805
1743758655.2859874,-0.002996052662060976
1743758655.2869635,-0.0029954516484878443
1743758655.2879395,-0.002993047594195317
1743758655.2889154,-0.0029879990801810123
1743758655.2898912,-0.0029833111743105857
1743758655.2908676,-0.002989802120900407
1743758655.2918437,-0.0029895617154711545
1743758655.2928195,-0.0029914849589051753
1743758655.2937953,-0.0029854748231738595
1743758655.2947714,-0.002991605161619802
1743758655.2957475,-0.0029954516484878443
1743758655.2967234,-0.0029947304322000858
1743758655.2976992,-0.002996293067490228
1743758655.2986755,-0.002994850634914712
1743758655.2996516,-0.002993047594195317
1743758655.3006275,-0.0029904031344735386
1743758655.3016033,-0.002994369824056207
1743758655.3025794,-0.0029926869860514385
1743758655.3035555,-0.002991965769763681
1743758655.3045316,-0.002991845567049054
1743758655.3055074,-0.002991725364334428
1743758655.3064835,-0.002988600093754144
1743758655.3074596,-0.0029875182693225068
1743758655.3084354,-0.0029904031344735386
1743758655.3094113,-0.0029954516484878443
1743758655.3103874,-0.0029925667833368124
1743758655.3113637,-0.002994369824056207
1743758655.3123395,-0.0030020627977922917
1743758655.3133154,-0.00299917793264126
1743758655.3142915,-0.0029979759054949966
1743758655.3152676,-0.0029997789462143914
1743758655.3162434,-0.003003144622223928
1743758655.3172193,-0.0030019425950776647
1743758655.3181953,-0.0030066305009480913
1743758655.3191717,-0.0030073517172358494
1743758655.3201475,-0.0030096355688137492
1743758655.3211234,-0.003008914352525991
1743758655.3220994,-0.003009875974243002
1743758655.3230755,-0.0030143234746841754
1743758655.3240514,-0.003013001244823286
1743758655.3250272,-0.00301288104210866
1743758655.3260036,-0.0030080729335236075
1743758655.3269796,-0.003007231514521223
1743758655.3279555,-0.0030078325280943545
1743758655.3289313,-0.003003505230367807
1743758655.3299074,-0.003007952730808981
1743758655.3308835,-0.0030101163796722543
1743758655.3318594,-0.003014924488257307
1743758655.3328354,-0.0030199730022716126
1743758655.3338115,-0.003022136651134887
1743758655.3347876,-0.0030281467868662026
1743758655.3357635,-0.0030289882058685863
1743758655.3367393,-0.003038965031182571
1743758655.3377154,-0.003035238747029155
1743758655.3386915,-0.003034878138885276
1743758655.3396676,-0.0030309114493026076
1743758655.3406434,-0.003032834692736629
1743758655.3416195,-0.003030310435729476
1743758655.3425956,-0.003024420502712786
1743758655.3435714,-0.003016006312688944
1743758655.3445473,-0.0030063900955188388
1743758655.3455234,-0.003001702189648412
1743758655.3464997,-0.0029965334729194805
1743758655.3474755,-0.0029995385407851384
1743758655.3484514,-0.003008794149811365
1743758655.3494275,-0.0030093951633844967
1743758655.3504035,-0.0030156457045450655
1743758655.3513794,-0.0030186507724107234
1743758655.3523552,-0.0030186507724107234
1743758655.3533316,-0.0030174487452644602
1743758655.3543077,-0.003020574015844744
1743758655.3552835,-0.0030251417190005447
1743758655.3562593,-0.003034878138885276
1743758655.3572354,-0.0030236992864250286
1743758655.3582115,-0.003022136651134887
1743758655.3591874,-0.0030251417190005447
1743758655.3601632,-0.0030267043542906865
1743758655.3611395,-0.00303571955788766
1743758655.3621156,-0.003040888274616592
1743758655.3630915,-0.0030354791524584077
1743758655.3640673,-0.003029108408583213
1743758655.3650434,-0.0030300700303002234
1743758655.3660195,-0.003027305367863818
1743758655.3669956,-0.003032594287307376
1743758655.3679714,-0.003026223543432181
1743758655.3689475,-0.00301516489368656
1743758655.3699236,-0.0030259831380029284
1743758655.3708994,-0.003032594287307376
1743758655.3718753,-0.00304521557234314
1743758655.3728514,-0.003052547937935345
1743758655.3738277,-0.00305074489721595
1743758655.3748035,-0.0030485812483526764
1743758655.3757794,-0.003052547937935345
1743758655.3767555,-0.0030547115867986187
1743758655.3777316,-0.003065289425685734
1743758655.3787074,-0.0030686551016952716
1743758655.3796833,-0.0030691359125537766
1743758655.3806593,-0.0030660106419734927
1743758655.3816357,-0.003075747061858224
1743758655.3826115,-0.0030743046292827088
1743758655.3835874,-0.003063125776822461
1743758655.3845634,-0.003066972263690503
1743758655.3855395,-0.003087286522462351
1743758655.3865154,-0.003090171387613382
1743758655.3874912,-0.0030770692917191137
1743758655.3884676,-0.00306120253338844
1743758655.3894436,-0.003058317668237408
1743758655.3904195,-0.0030539903705108606
1743758655.3913953,-0.003036681179604671
1743758655.3923714,-0.0030292286112978393
1743758655.3933475,-0.0030372821931778024
1743758655.3943233,-0.0030400468556142078
1743758655.3952994,-0.0030279063814369496
1743758655.3962755,-0.0030096355688137492
1743758655.3972516,-0.0029936486077684486
1743758655.3982275,-0.002993167796909944
1743758655.3992033,-0.0030113184068185175
1743758655.4001794,-0.0030316326655903656
1743758655.4011555,-0.003050624694501324
1743758655.4021316,-0.0030616833442469447
1743758655.4031074,-0.0030674530745490084
1743758655.4040835,-0.0030614429388176926
1743758655.4050596,-0.003052187329791466
1743758655.4060354,-0.0030502640863574446
1743758655.4070113,-0.0030309114493026076
1743758655.4079874,-0.0030085537443821126
1743758655.4089637,-0.0030173285425498333
1743758655.4099395,-0.0030270649624345655
1743758655.4109154,-0.003045095369628513
1743758655.4118915,-0.0030530287487938504
1743758655.4128675,-0.00305074489721595
1743758655.4138434,-0.003053870167796234
1743758655.4148192,-0.003058678276381287
1743758655.4157956,-0.003055913613944882
1743758655.4167717,-0.0030402872610434603
1743758655.4177475,-0.0030327144900220023
1743758655.4187233,-0.0030565146275180134
1743758655.4196994,-0.003072381385848687
1743758655.4206755,-0.003075626859143598
1743758655.4216514,-0.003068294493551392
1743758655.4226272,-0.0030517065189329604
1743758655.4236035,-0.0030343973280267706
1743758655.4245796,-0.0030406478691873393
1743758655.4255555,-0.003031873071019618
1743758655.4265313,-0.003016006312688944
1743758655.4275074,-0.0030024234059361703
1743758655.4284835,-0.0029906435399027907
1743758655.4294596,-0.0029831909715959597
1743758655.4304354,-0.0030131214475379122
1743758655.4314115,-0.0030258629352883024
1743758655.4323876,-0.003034517530741397
1743758655.4333634,-0.0030478600320649183
1743758655.4343393,-0.0030488216537819294
1743758655.4353154,-0.003042090301762855
1743758655.4362917,-0.0030444943560553814
1743758655.4372675,-0.0030406478691873393
1743758655.4382434,-0.003039445842041076
1743758655.4392195,-0.00303704178774855
1743758655.4401956,-0.003032594287307376
1743758655.4411714,-0.00302430029999816
1743758655.4421473,-0.003028026584151576
1743758655.4431233,-0.003049663072784313
1743758655.4440997,-0.0030660106419734927
1743758655.4450755,-0.0030626449659639557
1743758655.4460514,-0.0030573560465203976
1743758655.4470274,-0.003054110573225487
1743758655.4480035,-0.003058077262808155
1743758655.4489794,-0.003058077262808155
1743758655.4499552,-0.0030549519922278712
1743758655.4509315,-0.0030560338166595083
1743758655.4519076,-0.003053629762366982
1743758655.4528835,-0.003058317668237408
1743758655.4538593,-0.003050384289072071
1743758655.4548354,-0.003049542870069687
1743758655.4558115,-0.003049542870069687
1743758655.4567873,-0.0030499034782135656
1743758655.4577634,-0.003050384289072071
1743758655.4587395,-0.0030539903705108606
1743758655.4597156,-0.0030581974655227817
1743758655.4606915,-0.0030565146275180134
1743758655.4616673,-0.0030661308446881187
1743758655.4626434,-0.003071419764131677
1743758655.4636195,-0.0030699773315561608
1743758655.4645956,-0.003067332871834382
1743758655.4655714,-0.003067092466405129
1743758655.4665475,-0.0030666116555466243
1743758655.4675236,-0.0030658904392588658
1743758655.4684994,-0.0030589186818105398
1743758655.4694753,-0.0030577166546642766
1743758655.4704514,-0.0030603611143860555
1743758655.4714277,-0.0030615631415323186
1743758655.4724035,-0.0030657702365442397
1743758655.4733794,-0.003065289425685734
1743758655.4743555,-0.003062885371393208
1743758655.4753315,-0.0030600005062421764
1743758655.4763074,-0.0030532691542231026
1743758655.4772832,-0.003047619626635666
1743758655.4782596,-0.0030485812483526764
1743758655.4792356,-0.0030513459107890818
1743758655.4802115,-0.003060841925244561
1743758655.4811873,-0.00306120253338844
1743758655.4821634,-0.003078752129723882
1743758655.4831395,-0.003093296658193667
1743758655.4841154,-0.0031054371323709245
1743758655.4850912,-0.0031077209839488248
1743758655.4860675,-0.003100629023785872
1743758655.4870436,-0.003088248144179361
1743758655.4880195,-0.0030863249007453404
1743758655.4889953,-0.0030851228735990772
1743758655.4899714,-0.003083199630165056
1743758655.4909475,-0.003081997603018793
1743758655.4919236,-0.003081997603018793
1743758655.4928994,-0.0030830794274504295
1743758655.4938755,-0.0030864451034599664
1743758655.4948516,-0.0030875269278916036
1743758655.4958274,-0.0030810359813017822
1743758655.4968033,-0.0030848824681698243
1743758655.4977794,-0.0030876471306062296
1743758655.4987557,-0.0030825986165919244
1743758655.4997315,-0.003083920846452814
1743758655.5007074,-0.003084161251882066
1743758655.5016835,-0.0030883683468939872
1743758655.5026596,-0.0030866855088892194
1743758655.5036354,-0.00307947334601164
1743758655.5046113,-0.0030751460482850925
1743758655.5055873,-0.00307718949443374
1743758655.5065637,-0.0030852430763137033
1743758655.5075395,-0.0031026724699345196
1743758655.5085154,-0.0030952199016276876
1743758655.5094914,-0.003084161251882066
1743758655.5104675,-0.003085723887172209
1743758655.5114434,-0.0030811561840164083
1743758655.5124192,-0.0030864451034599664
1743758655.5133955,-0.0030818774003041663
1743758655.5143716,-0.003086084495316088
1743758655.5153475,-0.003088488549608614
1743758655.5163233,-0.0030811561840164083
1743758655.5172994,-0.003079713751440893
1743758655.5182755,-0.003076708683575235
1743758655.5192513,-0.00307947334601164
1743758655.5202274,-0.0030810359813017822
1743758655.5212035,-0.0030822380084480454
1743758655.5221796,-0.003084161251882066
1743758655.5231555,-0.003082959224735803
1743758655.5241313,-0.0030865653061745925
1743758655.5251074,-0.0030905319957572615
1743758655.5260835,-0.003083920846452814
1743758655.5270596,-0.0030770692917191137
1743758655.5280354,-0.0030646884121126026
1743758655.5290115,-0.0030717803722755555
1743758655.5299876,-0.0030731026021364456
1743758655.5309634,-0.003080675373157903
1743758655.5319393,-0.0030739440211388293
1743758655.5329154,-0.00307851172429463
1743758655.5338917,-0.0030830794274504295
1743758655.5348675,-0.0030728621967071926
1743758655.5358434,-0.0030664914528319973
1743758655.5368195,-0.003075626859143598
1743758655.5377955,-0.0030699773315561608
1743758655.5387714,-0.0030690157098391506
1743758655.5397472,-0.0030666116555466243
1743758655.5407236,-0.003087286522462351
1743758655.5416996,-0.0030883683468939872
1743758655.5426755,-0.003087046117033098
1743758655.5436513,-0.003087166319747724
1743758655.5446274,-0.0030919744283327767
1743758655.5456035,-0.0030830794274504295
1743758655.5465794,-0.0030803147650140246
1743758655.5475554,-0.003084161251882066
1743758655.5485315,-0.003090411793042635
1743758655.5495076,-0.0030877673333208557
1743758655.5504835,-0.0030894501713256244
1743758655.5514593,-0.003088127941464735
1743758655.5524354,-0.003080194562299398
1743758655.5534115,-0.0030890895631817458
1743758655.5543876,-0.003089209765896372
1743758655.5553634,-0.003086925914318472
1743758655.5563395,-0.0030751460482850925
1743758655.5573156,-0.0030751460482850925
1743758655.5582914,-0.0030830794274504295
1743758655.5592673,-0.0030791127378677614
1743758655.5602434,-0.0030776703052922453
1743758655.5612197,-0.003071419764131677
1743758655.5621955,-0.0030803147650140246
1743758655.5631714,-0.0030746652374265874
1743758655.5641475,-0.003074545034711961
1743758655.5651236,-0.003081997603018793
1743758655.5660994,-0.0030793531432970135
1743758655.5670753,-0.0030811561840164083
1743758655.5680513,-0.0030845218600259456
1743758655.5690277,-0.003091493617474272
1743758655.5700035,-0.0030908926039011405
1743758655.5709794,-0.0030838006437381876
1743758655.5719554,-0.003078631927009256
1743758655.5729315,-0.003078271318865377
1743758655.5739074,-0.003082478413877298
1743758655.5748832,-0.0030783915215800033
1743758655.5758595,-0.0030770692917191137
1743758655.5768356,-0.003075626859143598
1743758655.5778115,-0.0030788723324385084
1743758655.5787873,-0.003081997603018793
1743758655.5797634,-0.0030792329405823875
1743758655.5807395,-0.0030810359813017822
1743758655.5817153,-0.0030812763867310348
1743758655.5826914,-0.003079833954155519
1743758655.5836675,-0.0030811561840164083
1743758655.5846436,-0.0030833198328796825
1743758655.5856194,-0.0030920946310474037
1743758655.5865953,-0.0030948592934838086
1743758655.5875714,-0.003085723887172209
1743758655.5885475,-0.0030848824681698243
1743758655.5895236,-0.003083680441023561
1743758655.5904994,-0.003087046117033098
1743758655.5914755,-0.0030898107794695034
1743758655.5924516,-0.0030937774690521723
1743758655.5934274,-0.003093056252764414
1743758655.5944033,-0.003089209765896372
1743758655.5953794,-0.0030854834817429563
1743758655.5963557,-0.0030854834817429563
1743758655.5973315,-0.003079713751440893
1743758655.5983074,-0.0030777905080068718
1743758655.5992835,-0.003073703615709577
1743758655.6002595,-0.003075266250999719
1743758655.6012354,-0.003080675373157903
1743758655.6022112,-0.0030850026708844507
1743758655.6031876,-0.0030910128066157666
1743758655.6041636,-0.0030963017260593247
1743758655.6051395,-0.0030931764554790408
1743758655.6061153,-0.0030950996989130616
1743758655.6070914,-0.003095820915200819
1743758655.6080675,-0.0030883683468939872
1743758655.6090434,-0.003094138077196051
1743758655.6100194,-0.0030890895631817458
1743758655.6109955,-0.0030910128066157666
1743758655.6119716,-0.0030938976717667984
1743758655.6129475,-0.0030877673333208557
1743758655.6139233,-0.003092335036476656
1743758655.6148994,-0.003091613820188898
1743758655.6158755,-0.0030938976717667984
1743758655.6168516,-0.0030924552391912823
1743758655.6178274,-0.0030926956446205352
1743758655.6188035,-0.003093416860908293
1743758655.6197796,-0.0030926956446205352
1743758655.6207554,-0.003094378482625304
1743758655.6217313,-0.0030919744283327767
1743758655.6227074,-0.0030966623342032033
1743758655.6236837,-0.003095340104342314
1743758655.6246595,-0.003098585577637225
1743758655.6256354,-0.003097503753205588
1743758655.6266115,-0.0030991865912103566
1743758655.6275876,-0.003102552267219893
1743758655.6285634,-0.0031024320645052666
1743758655.6295393,-0.003102071456361388
1743758655.6305153,-0.0031042351052246613
1743758655.6314917,-0.0030999078074981142
1743758655.6324675,-0.0030947390907691825
1743758655.6334434,-0.0031019512536467615
1743758655.6344194,-0.0031009896319297513
1743758655.6353955,-0.003096421928773951
1743758655.6363714,-0.0030949794961984355
1743758655.6373472,-0.003098585577637225
1743758655.6383235,-0.0030977441586348404
1743758655.6392996,-0.0031012300373590034
1743758655.6402755,-0.0031049563215124194
1743758655.6412513,-0.0031072401730903192
1743758655.6422274,-0.0031054371323709245
1743758655.6432035,-0.0031049563215124194
1743758655.6441793,-0.0031066391595171877
1743758655.6451554,-0.0030982249694933455
1743758655.6461315,-0.0031026724699345196
1743758655.6471076,-0.003109043213809714
1743758655.6480834,-0.003108562402951209
1743758655.6490593,-0.0031024320645052666
1743758655.6500354,-0.0031038744970807827
1743758655.6510115,-0.0031091634165243405
1743758655.6519876,-0.003106038145944056
1743758655.6529634,-0.0031023118617906405
1743758655.6539395,-0.00310135024007363
1743758655.6549156,-0.0030996674020688612
1743758655.6558914,-0.003095580509771567
1743758655.6568673,-0.0030978643613494665
1743758655.6578434,-0.0030948592934838086
1743758655.6588197,-0.003091493617474272
1743758655.6597955,-0.0030851228735990772
1743758655.6607714,-0.0030815167921602877
1743758655.6617475,-0.003081636994874914
1743758655.6627235,-0.0030804349677286506
1743758655.6636994,-0.003072261183134061
1743758655.6646752,-0.00307033793970004
1743758655.6656516,-0.003068294493551392
1743758655.6666276,-0.0030697369261269082
1743758655.6676035,-0.0030719005749901824
1743758655.6685793,-0.003069256115268403
1743758655.6695554,-0.0030614429388176926
1743758655.6705315,-0.0030602409116714294
1743758655.6715074,-0.003060962127959187
1743758655.6724834,-0.0030678136826928874
1743758655.6734595,-0.0030706985478439193
1743758655.6744356,-0.0030733430075656977
1743758655.6754115,-0.0030780309134361243
1743758655.6763873,-0.003075747061858224
1743758655.6773634,-0.0030731026021364456
1743758655.6783395,-0.003074184426568082
1743758655.6793156,-0.003068174290836766
1743758655.6802914,-0.0030721409804194346
1743758655.6812675,-0.003074064223853456
1743758655.6822436,-0.003074424831997335
1743758655.6832194,-0.0030835602383089346
1743758655.6841953,-0.003087286522462351
1743758655.6851714,-0.0030989461857811036
1743758655.6861477,-0.00310591794322943
1743758655.6871235,-0.0031107260518144827
1743758655.6880994,-0.0031225059178478618
1743758655.6890755,-0.0031226261205624883
1743758655.6900516,-0.0031223857151332357
1743758655.6910274,-0.0031201018635553354
1743758655.6920033,-0.0031157745658287883
1743758655.6929796,-0.0031044755106539143
1743758655.6939557,-0.0031033936862222776
1743758655.6949315,-0.0031094038219535935
1743758655.6959074,-0.003108923011095088
1743758655.6968834,-0.003104836118797793
1743758655.6978595,-0.003093296658193667
1743758655.6988354,-0.003084401657311319
1743758655.6998112,-0.0030845218600259456
1743758655.7007875,-0.0030842814545966927
1743758655.7017636,-0.0030863249007453404
1743758655.7027395,-0.0030810359813017822
1743758655.7037153,-0.0030758672645728505
1743758655.7046914,-0.0030821178057334193
1743758655.7056675,-0.003081636994874914
1743758655.7066433,-0.00307947334601164
1743758655.7076194,-0.0030791127378677614
1743758655.7085955,-0.003073463210280324
1743758655.7095716,-0.0030749056428558403
1743758655.7105474,-0.0030792329405823875
1743758655.7115233,-0.0030813965894456613
1743758655.7124994,-0.003087046117033098
1743758655.7134755,-0.0030994269966396087
1743758655.7144516,-0.003102552267219893
1743758655.7154274,-0.0031007492265004983
1743758655.7164035,-0.0031031532807930247
1743758655.7173796,-0.003100629023785872
1743758655.7183554,-0.0030940178744814245
1743758655.7193313,-0.003097503753205588
1743758655.7203074,-0.0030940178744814245
1743758655.7212837,-0.003094378482625304
1743758655.7222595,-0.00308993098218413
1743758655.7232354,-0.0030845218600259456
1743758655.7242115,-0.003081636994874914
1743758655.7251875,-0.0030830794274504295
1743758655.7261634,-0.0030812763867310348
1743758655.7271392,-0.003078631927009256
1743758655.7281156,-0.0030792329405823875
1743758655.7290916,-0.0030793531432970135
1743758655.7300675,-0.0030781511161507504
1743758655.7310433,-0.0030864451034599664
1743758655.7320194,-0.0030886087523232402
1743758655.7329955,-0.003080915778587156
1743758655.7339714,-0.0030751460482850925
1743758655.7349474,-0.0030708187505585453
1743758655.7359235,-0.0030759874672874766
1743758655.7368996,-0.0030838006437381876
1743758655.7378755,-0.0030967825369178303
1743758655.7388513,-0.003107119970375693
1743758655.7398274,-0.003102071456361388
1743758655.7408035,-0.003099547199354235
1743758655.7417796,-0.003094618888054556
1743758655.7427554,-0.0030895703740402504
1743758655.7437315,-0.0030848824681698243
1743758655.7447076,-0.003083680441023561
1743758655.7456834,-0.0030825986165919244
1743758655.7466593,-0.003080675373157903
1743758655.7476354,-0.0030607217225299345
1743758655.7486117,-0.0030531489515084765
1743758655.7495875,-0.0030300700303002234
1743758655.7505634,-0.003016246718118197
1743758655.7515395,-0.003011799217677023
1743758655.7525156,-0.003004466852084818
1743758655.7534914,-0.0030019425950776647
1743758655.7544672,-0.0029983365136388752
1743758655.7554436,-0.00300146178421916
1743758655.7564197,-0.0030093951633844967
1743758655.7573955,-0.003012039623106276
1743758655.7583714,-0.0030096355688137492
1743758655.7593474,-0.003005428473801828
1743758655.7603235,-0.0030038658385116864
1743758655.7612994,-0.003004587054799444
1743758655.7622752,-0.003012159825820902
1743758655.7632515,-0.0030228578674226445
1743758655.7642276,-0.0030311518547318605
1743758655.7652035,-0.0030447347614846344
1743758655.7661793,-0.0030376428013216814
1743758655.7671554,-0.003042210504477481
1743758655.7681315,-0.0030478600320649183
1743758655.7691073,-0.003046537802204029
1743758655.7700834,-0.003042330707192108
1743758655.7710595,-0.0030371619904631763
1743758655.7720356,-0.00302658415157606
1743758655.7730114,-0.0030157659072596915
1743758655.7739873,-0.0030063900955188388
1743758655.7749634,-0.0030008607706460285
1743758655.7759397,-0.0029893213100419015
1743758655.7769156,-0.0029849940123153544
1743758655.7778914,-0.0029758586060037538
1743758655.7788675,-0.0029706898892748225
1743758655.7798436,-0.002953500901083259
1743758655.7808194,-0.0029477311707811955
1743758655.7817953,-0.0029514574549346115
1743758655.7827713,-0.0029602322531023326
1743758655.7837477,-0.002966963605121406
1743758655.7847235,-0.002991725364334428
1743758655.7856994,-0.0030429317207652396
1743758655.7866755,-0.003078992535153135
1743758655.7876515,-0.003107119970375693
1743758655.7886274,-0.00312779483729142
1743758655.7896032,-0.003133203959449604
1743758655.7905796,-0.0031562828806578572
1743758655.7915556,-0.0031632546381061837
1743758655.7925315,-0.0031518353802166836
1743758655.7935073,-0.003136569635459141
1743758655.7944834,-0.003130439297013199
1743758655.7954595,-0.003121544296130851
1743758655.7964354,-0.003116135173972667
1743758655.7974114,-0.0031024320645052666
1743758655.7983875,-0.0030949794961984355
1743758655.7993636,-0.0030842814545966927
1743758655.8003395,-0.003086925914318472
1743758655.8013153,-0.0030894501713256244
1743758655.8022914,-0.003098825983066477
1743758655.8032675,-0.00310135024007363
1743758655.8042436,-0.003104715916083167
1743758655.8052194,-0.003108081592092704
1743758655.8061955,-0.003120222066269962
1743758655.8071716,-0.0031354878110275044
1743758655.8081474,-0.0031449838254829833
1743758655.8091233,-0.0031359686218860095
1743758655.8100994,-0.003114692741397151
1743758655.8110757,-0.003097383550490962
1743758655.8120515,-0.003083680441023561
1743758655.8130274,-0.003071419764131677
1743758655.8140035,-0.0030667318582612503
1743758655.8149796,-0.0030603611143860555
1743758655.8159554,-0.0030630055741078348
1743758655.8169312,-0.0030428115180506127
1743758655.8179076,-0.003015886109974318
1743758655.8188837,-0.0029894415127565276
1743758655.8198595,-0.002968285834982296
1743758655.8208354,-0.0029666029969775275
1743758655.8218114,-0.002961434280248596
1743758655.8227875,-0.0029674444159799116
1743758655.8237634,-0.002984392998742223
1743758655.8247392,-0.0029952112430585913
1743758655.8257155,-0.002997014283777986
1743758655.8266916,-0.0030155255018304386
1743758655.8276675,-0.0030269447597199395
1743758655.8286433,-0.0030256225298590494
1743758655.8296194,-0.003034036719882892
1743758655.8305955,-0.003057836857378903
1743758655.8315713,-0.003090411793042635
1743758655.8325474,-0.003126713012859783
1743758655.8335235,-0.003173952679707926
1743758655.8344996,-0.0032049649800815158
1743758655.8354754,-0.003209172075093437
1743758655.8364513,-0.003195589168340663
1743758655.8374274,-0.00318849720817771
1743758655.8384037,-0.0031805638290123735
1743758655.8393795,-0.0031618122055306675
1743758655.8403554,-0.0031449838254829833
1743758655.8413315,-0.0031053169296562984
1743758655.8423076,-0.0030868057116038455
1743758655.8432834,-0.003049542870069687
1743758655.8442593,-0.0030226174619933915
1743758655.8452353,-0.0030021830005069177
1743758655.8462117,-0.0030018223923630387
1743758655.8471875,-0.0029980961082096227
1743758655.8481634,-0.002998456716353502
1743758655.8491395,-0.0029654009698312643
1743758655.8501155,-0.002931984615165148
1743758655.8510914,-0.0029156370459759687
1743758655.8520672,-0.0029174400866953634
1743758655.8530436,-0.002910588531961663
1743758655.8540196,-0.0029084248830983897
1743758655.8549955,-0.002900010693074547
1743758655.8559713,-0.0028894328541874317
1743758655.8569474,-0.002891476300336079
1743758655.8579235,-0.002903015760940205
1743758655.8588994,-0.0029050592070888528
1743758655.8598754,-0.002900371301218426
1743758655.8608515,-0.002881259069592842
1743758655.8618276,-0.0028888318406142996
1743758655.8628035,-0.0029125117753956843
1743758655.8637793,-0.0029502554277883483
1743758655.8647554,-0.0029968940810633595
1743758655.8657315,-0.0029871576611786277
1743758655.8667076,-0.0029734545517112274
1743758655.8676834,-0.0029757384032891277
1743758655.8686595,-0.0029997789462143914
1743758655.8696356,-0.00300013955435827
1743758655.8706114,-0.0030240598945689076
1743758655.8715873,-0.003053389356937729
1743758655.8725634,-0.0030443741533407553
1743758655.8735397,-0.003016006312688944
1743758655.8745155,-0.0030090345552406176
1743758655.8754914,-0.0029881192828956384
1743758655.8764675,-0.0029805465118741803
1743758655.8774436,-0.0029883596883248913
1743758655.8784194,-0.003010476987816134
1743758655.8793952,-0.00305663483023264
1743758655.8803716,-0.0030803147650140246
1743758655.8813477,-0.00311733720111893
1743758655.8823235,-0.0031627738272476786
1743758655.8832994,-0.0032100134940958214
1743758655.8842754,-0.003217706467831906
1743758655.8852515,-0.003228043901289769
1743758655.8862274,-0.003226120657855748
1743758655.8872032,-0.003244752078622827
1743758655.8881795,-0.0032673501889725755
1743758655.8891556,-0.0032922321509002233
1743758655.8901315,-0.0033091807336625336
1743758655.8911073,-0.0032988433002046707
1743758655.8920834,-0.003234775253308843
1743758655.8930595,-0.003144503014624478
1743758655.8940353,-0.003071539966846303
1743758655.8950114,-0.0030267043542906865
1743758655.8959875,-0.0029965334729194805
1743758655.8969636,-0.0029416008323352536
1743758655.8979394,-0.0028620266352526306
1743758655.8989153,-0.002780048383877482
1743758655.8998914,-0.0027457906102089816
1743758655.9008677,-0.002725356148722507
1743758655.9018435,-0.0027091287822479542
1743758655.9028194,-0.0026938630374904117
1743758655.9037955,-0.0027042004709482755
1743758655.9047716,-0.002717903580415676
1743758655.9057474,-0.0027366552038973813
1743758655.9067233,-0.0027522815567988025
1743758655.9076993,-0.0027781251404434613
1743758655.9086757,-0.0028201960905626725
1743758655.9096515,-0.0028631084596842677
1743758655.9106274,-0.0029099875183885315
1743758655.9116035,-0.0029431634676253954
1743758655.9125795,-0.0030215356375617552
1743758655.9135554,-0.0031056775378001775
1743758655.9145312,-0.0032058063990839003
1743758655.9155076,-0.003304252422362855
1743758655.9164836,-0.003350650670208613
1743758655.9174595,-0.0033962074990519877
1743758655.9184353,-0.003399813580490777
1743758655.9194114,-0.0033412748584677604
1743758655.9203875,-0.003303531206075097
1743758655.9213634,-0.003260859242382754
1743758655.9223394,-0.003237900523889127
1743758655.9233155,-0.0031597687593820207
1743758655.9242916,-0.003091253212045019
1743758655.9252675,-0.0030863249007453404
1743758655.9262433,-0.0030708187505585453
1743758655.9272194,-0.0029911243507612963
1743758655.9281955,-0.002923690627855932
1743758655.9291716,-0.0028589013646723466
1743758655.9301474,-0.0028286102805865146
1743758655.9311235,-0.002831975956596051
1743758655.9320996,-0.002771513991139013
1743758655.9330754,-0.0026068362721009576
1743758655.9340513,-0.00255094200979972
1743758655.9350274,-0.0025144003845533193
1743758655.9360037,-0.0024842295031821137
1743758655.9369795,-0.002528343899449972
1743758655.9379554,-0.002563443092120857
1743758655.9389315,-0.002587603837760747
1743758655.9399076,-0.0026457819516398848
1743758655.9408834,-0.002773317031858408
1743758655.9418592,-0.002916839073122232
1743758655.9428356,-0.0030145638801134284
1743758655.9438117,-0.003114572538682525
1743758655.9447875,-0.0031484697042071467
1743758655.9457633,-0.0032103741022397
1743758655.9467394,-0.0033454819534796815
1743758655.9477155,-0.0034826332508683107
1743758655.9486914,-0.0035808388687180123
1743758655.9496672,-0.003567015556535986
1743758655.9506435,-0.0034829938590121897
1743758655.9516196,-0.0033858700655941248
1743758655.9525955,-0.0033065362739407547
1743758655.9535713,-0.0032274428877166372
1743758655.9545474,-0.003150753555785047
1743758655.9555235,-0.0030924552391912823
1743758655.9564993,-0.0030252619217151708
1743758655.9574754,-0.0029325856287382795
1743758655.9584515,-0.002908905693956895
1743758655.9594276,-0.0029079440722398846
1743758655.9604034,-0.0029079440722398846
1743758655.9613793,-0.0029265754930069636
1743758655.9623554,-0.0029514574549346115
1743758655.9633317,-0.002958789820526817
1743758655.9643075,-0.002913112788968816
1743758655.9652834,-0.002890755084048321
1743758655.9662595,-0.002930542182589632
1743758655.9672356,-0.0029333068450260375
1743758655.9682114,-0.002953861509227138
1743758655.9691873,-0.0030019425950776647
1743758655.9701633,-0.0030399266528995817
1743758655.9711397,-0.00308993098218413
1743758655.9721155,-0.003089209765896372
1743758655.9730914,-0.0029801859037303017
1743758655.9740674,-0.002855175080518931
1743758655.9750435,-0.002796516155781288
1743758655.9760194,-0.002742304731484818
1743758655.9769952,-0.002690136753336996
1743758655.9779716,-0.0026677790484165007
1743758655.9789476,-0.002644820329922874
1743758655.9799235,-0.002592171540916547
1743758655.9808993,-0.002565606740984131
1743758655.9818754,-0.002560678429684452
1743758655.9828515,-0.002576665390729752
1743758655.9838274,-0.002632679855745616
1743758655.9848034,-0.0027215096618544653
1743758655.9857795,-0.002809257643531677
1743758655.9867556,-0.0028675559601254418
1743758655.9877315,-0.0029572271852366747
1743758655.9887073,-0.002963838334541122
1743758655.9896834,-0.0030050678656579496
1743758655.9906595,-0.0030396862474703287
1743758655.9916356,-0.0030961815233446987
1743758655.9926114,-0.003146666663487752
1743758655.9935875,-0.003094258279910677
1743758655.9945636,-0.0030436529370529973
1743758655.9955394,-0.003023098272851897
1743758655.9965153,-0.0030238194891396546
1743758655.9974914,-0.003065529831114987
1743758655.9984677,-0.003083920846452814
1743758655.9994435,-0.003112168484389999
1743758656.0004194,-0.0031011098346443774
1743758656.0013955,-0.003071419764131677
1743758656.0023715,-0.0030497832754989396
1743758656.0033474,-0.0030351185443145286
1743758656.0043232,-0.0029151562351174636
1743758656.0052996,-0.0027895443983329614
1743758656.0062757,-0.0026676588457018747
1743758656.0072515,-0.0025836371481780785
1743758656.0082273,-0.0025478167392194357
1743758656.0092034,-0.002525939845157446
1743758656.0101795,-0.0024970911936471295
1743758656.0111554,-0.0024445626073554285
1743758656.0121312,-0.002402371454521591
1743758656.0131075,-0.0023828986147521277
1743758656.0140836,-0.0023810955740327325
1743758656.0150595,-0.002524617615296556
1743758656.0160353,-0.002657561817673264
1743758656.0170114,-0.0027658644635515767
1743758656.0179875,-0.002828850686015767
1743758656.0189633,-0.0029507362386468534
1743758656.0199394,-0.003059399492669045
1743758656.0209155,-0.003144743420053731
1743758656.0218916,-0.003263984512963038
1743758656.0228674,-0.003353174927215766
1743758656.0238433,-0.003445009801190273
1743758656.0248194,-0.0035457396760471276
1743758656.0257957,-0.003662817120093161
1743758656.0267715,-0.0036908243526010934
1743758656.0277474,-0.0036525998893499243
1743758656.0287235,-0.0036730343508363985
1743758656.0296996,-0.0036516382676329132
1743758656.0306754,-0.0035087172399422216
1743758656.0316513,-0.003336827358026587
1743758656.0326273,-0.003190300248897105
1743758656.0336037,-0.0030792329405823875
1743758656.0345795,-0.0029884798910395174
1743758656.0355554,-0.002934629074886927
1743758656.0365314,-0.002894601570916363
1743758656.0375075,-0.0028984480577844054
1743758656.0384834,-0.0028909954894775734
1743758656.0394592,-0.00280949804896093
1743758656.0404356,-0.002769470544990366
1743758656.0414116,-0.0027727160182852762
1743758656.0423875,-0.0028012040616517144
1743758656.0433633,-0.0027930302770571244
1743758656.0443394,-0.0027622583821127872
1743758656.0453155,-0.0027519209486549234
1743758656.0462914,-0.002689295334334612
1743758656.0472674,-0.0027022772275142547
1743758656.0482435,-0.0027418239206263126
1743758656.0492196,-0.00283822649775662
1743758656.0501955,-0.002891836908479958
1743758656.0511713,-0.0029787434711547856
1743758656.0521474,-0.003128155445435299
1743758656.0531235,-0.0032154226162540056
1743758656.0540996,-0.0032464349166275957
1743758656.0550754,-0.0031933053167627636
1743758656.0560515,-0.003143661595622094
1743758656.0570276,-0.00313007868886932
1743758656.0580034,-0.003136449432744515
1743758656.0589793,-0.0031222655124186097
1743758656.0599554,-0.003088969360467119
1743758656.0609317,-0.0031631344353915576
1743758656.0619075,-0.003287063434171291
1743758656.0628834,-0.0033532951299303925
1743758656.0638595,-0.0033499294539208555
1743758656.0648355,-0.0032995645164924283
1743758656.0658114,-0.003236217685884359
1743758656.0667872,-0.0031515949747874306
1743758656.0677636,-0.003111206862672988
1743758656.0687397,-0.003088488549608614
1743758656.0697155,-0.0031001482129273668
1743758656.0706913,-0.0030600005062421764
1743758656.0716674,-0.0029836717824544647
1743758656.0726435,-0.0028839035293146205
1743758656.0736194,-0.002691939794056391
1743758656.0745952,-0.002569934038710678
1743758656.0755715,-0.002515001398126451
1743758656.0765476,-0.0025367580894738143
1743758656.0775235,-0.0025753431608688624
1743758656.0784993,-0.002580511877597794
1743758656.0794754,-0.002618015124561205
1743758656.0804515,-0.0026929014157734015
1743758656.0814276,-0.0028312547403082935
1743758656.0824034,-0.0029244118441436903
1743758656.0833795,-0.0030399266528995817
1743758656.0843556,-0.003144863622768357
1743758656.0853314,-0.0031650576788255784
1743758656.0863073,-0.0032128983592468532
1743758656.0872834,-0.003377455875570282
1743758656.0882597,-0.003446572436480415
1743758656.0892355,-0.003343318304616408
1743758656.0902114,-0.003327090938141855
1743758656.0911875,-0.0033469243860551976
1743758656.0921636,-0.0033702437126927032
1743758656.0931394,-0.003387192295455014
1743758656.0941153,-0.003392481214898572
1743758656.0950913,-0.0033458425616235605
1743758656.0960677,-0.00322311558999009
1743758656.0970435,-0.003183088086019526
1743758656.0980194,-0.003172750652561663
1743758656.0989954,-0.0032278034958605167
1743758656.0999715,-0.0033185565454033864
1743758656.1009474,-0.003411112635665651
1743758656.1019232,-0.0035242233901290163
1743758656.1028996,-0.003649114010625761
1743758656.1038756,-0.003732895302720305
1743758656.1048515,-0.0037272457751328677
1743758656.1058273,-0.003734217532581194
1743758656.1068034,-0.0037420307090319047
1743758656.1077795,-0.003640098807028787
1743758656.1087554,-0.0035317961611504747
1743758656.1097314,-0.0034160409469653308
1743758656.1107075,-0.003370844726265835
1743758656.1116836,-0.003301006949067944
1743758656.1126595,-0.0030905319957572615
1743758656.1136353,-0.0027618977739689078
1743758656.1146114,-0.0025087508569658825
1743758656.1155875,-0.0023919138183491014
1743758656.1165636,-0.0023357791506186105
1743758656.1175394,-0.002248511979799904
1743758656.1185155,-0.002154753862391376
1743758656.1194916,-0.002079146354891422
1743758656.1204674,-0.002070491759438327
1743758656.1214433,-0.002131674941183123
1743758656.1224194,-0.0023035648230987577
1743758656.1233957,-0.002484710314040619
1743758656.1243715,-0.0026235444494340163
1743758656.1253474,-0.0028293314968742722
1743758656.1263235,-0.003034517530741397
1743758656.1272995,-0.0033212010051251652
1743758656.1282754,-0.0033964479044812407
1743758656.1292512,-0.0033080989092308965
1743758656.1302276,-0.003270715864982112
1743758656.1312037,-0.003210133696810448
1743758656.1321795,-0.0032095326832373163
1743758656.1331553,-0.0032024407230743634
1743758656.1341314,-0.0030589186818105398
1743758656.1351075,-0.002912631978110311
1743758656.1360834,-0.002895923800777252
1743758656.1370592,-0.002967083807836033
1743758656.1380355,-0.002985835431317738
1743758656.1390116,-0.0028709216361349783
1743758656.1399875,-0.0027698311531342452
1743758656.1409633,-0.0027951939259203977
1743758656.1419394,-0.0029295805608726216
1743758656.1429155,-0.003024420502712786
1743758656.1438916,-0.0031483495014925206
1743758656.1448674,-0.003285861407025028
1743758656.1458435,-0.003308940328233281
1743758656.1468196,-0.003209172075093437
1743758656.1477954,-0.00315652328608711
1743758656.1487713,-0.003193665924906642
1743758656.1497474,-0.0031562828806578572
1743758656.1507237,-0.0030428115180506127
1743758656.1516995,-0.0029371533318940796
1743758656.1526754,-0.002931984615165148
1743758656.1536515,-0.002828970888730393
1743758656.1546276,-0.00276706649069784
1743758656.1556034,-0.0027288420274466704
1743758656.1565793,-0.0027240339188616177
1743758656.1575553,-0.00278305345174314
1743758656.1585317,-0.0028966450170650106
1743758656.1595075,-0.003025021516285918
1743758656.1604834,-0.00315195558293131
1743758656.1614594,-0.003279490663149833
1743758656.1624355,-0.00334848702134534
1743758656.1634114,-0.0033733689832729876
1743758656.1643872,-0.003371565942553593
1743758656.1653636,-0.003307618098372392
1743758656.1663396,-0.0033197585725496495
1743758656.1673155,-0.0033393516150337396
1743758656.1682913,-0.003368200266544056
1743758656.1692674,-0.0033696426991195716
1743758656.1702435,-0.003387192295455014
1743758656.1712193,-0.0034500583152045784
1743758656.1721954,-0.0034874413594533633
1743758656.1731715,-0.003506192982935069
1743758656.1741476,-0.003391038782323056
1743758656.1751235,-0.0031506333530704205
1743758656.1760993,-0.0030733430075656977
1743758656.1770754,-0.002975137389715996
1743758656.1780515,-0.002952058468507743
1743758656.1790276,-0.002941841237764506
1743758656.1800034,-0.002881018664163589
1743758656.1809795,-0.0027133358772598753
1743758656.1819556,-0.002590248297482526
1743758656.1829314,-0.002559596605252815
1743758656.1839073,-0.0024629536226932554
1743758656.1848834,-0.0024199210508570337
1743758656.1858597,-0.0024944467339253506
1743758656.1868355,-0.0025285843048792247
1743758656.1878114,-0.002621020192426863
1743758656.1887875,-0.002711172228396602
1743758656.1897635,-0.002714898512550018
1743758656.1907394,-0.0027249955405786283
1743758656.1917152,-0.0027487956780746395
1743758656.1926916,-0.0028022858860833506
1743758656.1936677,-0.0028846247456023786
1743758656.1946435,-0.0029456877246325478
1743758656.1956193,-0.0029706898892748225
1743758656.1965954,-0.0030587984790959133
1743758656.1975715,-0.0031898194380386
1743758656.1985474,-0.003402698445641809
1743758656.1995232,-0.0035305941340042116
1743758656.2004995,-0.003522540552124248
1743758656.2014756,-0.00356328927238257
1743758656.2024515,-0.003632886644151208
1743758656.2034273,-0.0037612631433721153
1743758656.2044034,-0.003796482538757627
1743758656.2053795,-0.003714263881953225
1743758656.2063556,-0.003656686781647219
1743758656.2073314,-0.0035352820398746377
1743758656.2083075,-0.003458953316086926
1743758656.2092836,-0.003423733920701415
1743758656.2102594,-0.003406064121651346
1743758656.2112353,-0.0033684406719733085
1743758656.2122114,-0.003351972900069503
1743758656.2131877,-0.003243790456905817
1743758656.2141635,-0.003215783224397885
1743758656.2151394,-0.003199195249779453
1743758656.2161155,-0.0031752749095688153
1743758656.2170916,-0.0031865739647436893
1743758656.2180674,-0.0031303190942985723
1743758656.2190433,-0.0030354791524584077
1743758656.2200193,-0.0029194835328440107
1743758656.2209957,-0.0028682771764131994
1743758656.2219715,-0.002912631978110311
1743758656.2229474,-0.0029736949571404804
1743758656.2239234,-0.0030731026021364456
1743758656.2248995,-0.0032077296425179216
1743758656.2258754,-0.003181525450729384
1743758656.2268512,-0.003089209765896372
1743758656.2278275,-0.003003144622223928
1743758656.2288036,-0.002898808665928284
1743758656.2297795,-0.002800723250793209
1743758656.2307553,-0.0028270476452963724
1743758656.2317314,-0.0028520498099386463
1743758656.2327075,-0.00285421345880192
1743758656.2336833,-0.00279351108791563
1743758656.2346594,-0.002817912238984772
1743758656.2356355,-0.0028085364272439194
1743758656.2366116,-0.002714658107120765
1743758656.2375875,-0.0025870028241876154
1743758656.2385633,-0.002498533626222645
1743758656.2395394,-0.0025178862632774823
1743758656.2405155,-0.002582555323746442
1743758656.2414916,-0.0025323105890326407
1743758656.2424674,-0.0025105538976852772
1743758656.2434435,-0.002583877553607331
1743758656.2444196,-0.0027405016907654234
1743758656.2453954,-0.0028561367022359413
1743758656.2463713,-0.0029706898892748225
1743758656.2473474,-0.0030961815233446987
1743758656.2483237,-0.0033331010738731712
1743758656.2492995,-0.0036446665101845872
1743758656.2502754,-0.0037544115886384154
1743758656.2512515,-0.003774605644695637
1743758656.2522275,-0.003765951049242542
1743758656.2532034,-0.003747319628475463
1743758656.2541792,-0.0035612458262339226
1743758656.2551556,-0.0034572704780821573
1743758656.2561316,-0.003401135810351667
1743758656.2571075,-0.003345001142621177
1743758656.2580833,-0.003176597139429705
1743758656.2590594,-0.003003024419509302
1743758656.2600355,-0.0028399093357613886
1743758656.2610114,-0.0027110520256819755
1743758656.2619872,-0.002672226548857675
1743758656.2629635,-0.0027230722971446075
1743758656.2639396,-0.0028272880507256254
1743758656.2649155,-0.003005789081945707
1743758656.2658913,-0.003232010590872438
1743758656.2668674,-0.0033888751334597827
1743758656.2678435,-0.003549105352056664
1743758656.2688196,-0.0036664232015319507
1743758656.2697954,-0.0037092153679389203
1743758656.2707715,-0.0037271255724182412
1743758656.2717476,-0.0037796541587099427
1743758656.2727234,-0.003758859089079589
1743758656.2736993,-0.0037260437479866046
1743758656.2746754,-0.003676400026845935
1743758656.2756517,-0.003516530416392932
1743758656.2766275,-0.0033125464096720706
1743758656.2776034,-0.0031818860588732627
1743758656.2785795,-0.0031140917278240196
1743758656.2795556,-0.003135007000168999
1743758656.2805314,-0.003197031600916179
1743758656.2815073,-0.0032161438325417637
1743758656.2824833,-0.0031838093023072844
1743758656.2834597,-0.0031733516661347945
1743758656.2844355,-0.0032213125492706954
1743758656.2854114,-0.0032445116731935745
1743758656.2863874,-0.0032808128930107224
1743758656.2873635,-0.0032988433002046707
1743758656.2883394,-0.003335865736309576
1743758656.2893152,-0.0033192777616911444
1743758656.2902915,-0.0030679338854075135
1743758656.2912676,-0.002722230878142223
1743758656.2922435,-0.0025642845111232414
1743758656.2932193,-0.0025180064659921088
1743758656.2941954,-0.002489278017196419
1743758656.2951715,-0.0024290564571686334
1743758656.2961473,-0.002407419968535896
1743758656.2971234,-0.0023916734129198485
1743758656.2980995,-0.0023658298292751905
1743758656.2990756,-0.0025058659918148506
1743758656.3000515,-0.0028135849412582246
1743758656.3010273,-0.003178039572005221
1743758656.3020034,-0.0035880510315955912
1743758656.3029795,-0.0037844622672949953
1743758656.3039556,-0.003812349297088301
1743758656.3049314,-0.0037941986871797267
1743758656.3059075,-0.0036669040123904558
1743758656.3068836,-0.003567496367394491
1743758656.3078594,-0.0034720554119811943
1743758656.3088353,-0.003322883843129934
1743758656.3098114,-0.003263503702104533
1743758656.3107877,-0.003237660118459874
1743758656.3117635,-0.003239583361893896
1743758656.3127394,-0.0032805724875814703
1743758656.3137155,-0.0032591764043779854
1743758656.3146915,-0.0031776789638613416
1743758656.3156674,-0.0031687839629789944
1743758656.3166432,-0.0031827274778756473
1743758656.3176196,-0.003236217685884359
1743758656.3185956,-0.0032498005926371327
1743758656.3195715,-0.0032009982904988477
1743758656.3205473,-0.003050624694501324
1743758656.3215234,-0.002855054877804304
1743758656.3224995,-0.0027361743930388763
1743758656.3234754,-0.002697348916214575
1743758656.3244514,-0.0025999847173672577
1743758656.3254275,-0.0025461339012146675
1743758656.3264036,-0.0025583945781065516
1743758656.3273795,-0.002584598769895089
1743758656.3283553,-0.0025818341074586837
1743758656.3293314,-0.0027031186465166384
1743758656.3303075,-0.002869839811703341
1743758656.3312836,-0.003165298084254831
1743758656.3322594,-0.0033719265506974715
1743758656.3332355,-0.003378056889143414
1743758656.3342116,-0.0033846680384478616
1743758656.3351874,-0.0034692907495447894
1743758656.3361633,-0.0035266274444215426
1743758656.3371394,-0.0036480321861941238
1743758656.3381157,-0.003706570908217141
1743758656.3390915,-0.0036104087365160867
1743758656.3400674,-0.0033510112783524926
1743758656.3410435,-0.003049182261925808
1743758656.3420196,-0.0027677877069855975
1743758656.3429954,-0.002619697962565974
1743758656.3439713,-0.0025950564060675785
1743758656.3449473,-0.002629314179736079
1743758656.3459237,-0.002561880456830715
1743758656.3468995,-0.0025476965365048092
1743758656.3478754,-0.002673428576003938
1743758656.3488514,-0.0028829419075976103
1743758656.3498275,-0.0031459454471999943
1743758656.3508034,-0.0034839554807292
1743758656.3517792,-0.0037427519253196624
1743758656.3527555,-0.0038213645006852748
1743758656.3537316,-0.003799728012052537
1743758656.3547075,-0.0037535701696360317
1743758656.3556833,-0.003662095903805403
1743758656.3566594,-0.0035831227202959125
1743758656.3576355,-0.0035862479908761965
1743758656.3586113,-0.0035872096125932076
1743758656.3595874,-0.00351857386254158
1743758656.3605635,-0.0034061843243659725
1743758656.3615396,-0.003275283568137912
1743758656.3625154,-0.0031585667322357575
1743758656.3634913,-0.003020093204986239
1743758656.3644674,-0.0030175689479790863
1743758656.3654435,-0.0031241887558526305
1743758656.3664196,-0.0031418585549026993
1743758656.3673954,-0.0031374110544615252
1743758656.3683715,-0.003230207550153043
1743758656.3693476,-0.003396327701766614
1743758656.3703234,-0.003423733920701415
1743758656.3712993,-0.003356901211369182
1743758656.3722754,-0.00336675783396854
1743758656.3732517,-0.003399693377776151
1743758656.3742275,-0.003500182847203753
1743758656.3752034,-0.0035295123095725744
1743758656.3761795,-0.0034147187171044407
1743758656.3771555,-0.003137290851746899
1743758656.3781314,-0.002828850686015767
1743758656.3791072,-0.002605393839525442
1743758656.3800836,-0.002452616189235392
1743758656.3810596,-0.002411026049974686
1743758656.3820355,-0.0024678819339929345
1743758656.3830113,-0.0025984220820771155
1743758656.3839874,-0.002722110675427597
1743758656.3849635,-0.002836784065181104
1743758656.3859394,-0.0029967738783487335
1743758656.3869154,-0.003258214782660975
1743758656.3878915,-0.0035210981195487323
1743758656.3888676,-0.003626155292132134
1743758656.3898435,-0.0036063218442187917
1743758656.3908193,-0.003491528251750658
1743758656.3917954,-0.0034428461523269994
1743758656.3927715,-0.003417483379540846
1743758656.3937476,-0.003402818648356435
1743758656.3947234,-0.0034284218265718414
1743758656.3956995,-0.003435153178590915
1743758656.3966756,-0.0034704927766910526
1743758656.3976514,-0.0035221799439803694
1743758656.3986273,-0.003567496367394491
1743758656.3996034,-0.0034301046645766092
1743758656.4005797,-0.0032614602559558857
1743758656.4015555,-0.003113490714250888
1743758656.4025314,-0.00306805408812214
1743758656.4035075,-0.00307718949443374
1743758656.4044836,-0.002997495094636491
1743758656.4054594,-0.0030731026021364456
1743758656.4064353,-0.0031483495014925206
1743758656.4074113,-0.0031941467357651473
1743758656.4083877,-0.00311505334954103
1743758656.4093635,-0.003113490714250888
1743758656.4103394,-0.0031413777440441938
1743758656.4113154,-0.003094378482625304
1743758656.4122915,-0.0030994269966396087
1743758656.4132674,-0.0031107260518144827
1743758656.4142432,-0.003120462471699215
1743758656.4152195,-0.003129357472581562
1743758656.4161956,-0.00311637557940192
1743758656.4171715,-0.0031532778127921993
1743758656.4181473,-0.003301367557211823
1743758656.4191234,-0.003515809200105174
1743758656.4200995,-0.0035659337321043492
1743758656.4210753,-0.0035442972434716114
1743758656.4220514,-0.003487321156738737
1743758656.4230275,-0.0034243349342745464
1743758656.4240036,-0.003356660805939929
1743758656.4249794,-0.00322996714472379
1743758656.4259553,-0.0030108375959600124
1743758656.4269314,-0.002962636307394859
1743758656.4279075,-0.002936191710177069
1743758656.4288836,-0.002870801433420352
1743758656.4298594,-0.0028841439347438735
1743758656.4308355,-0.0029158774514052212
1743758656.4318116,-0.002920925965419527
1743758656.4327874,-0.00297730103857927
1743758656.4337633,-0.003197031600916179
1743758656.4347394,-0.003380701348865193
1743758656.4357157,-0.00356785697553837
1743758656.4366915,-0.003734938748868952
1743758656.4376674,-0.0036352906984437345
1743758656.4386435,-0.0035457396760471276
1743758656.4396195,-0.0033632719552443772
1743758656.4405954,-0.0031414979467588203
1743758656.4415712,-0.0029245320468583164
1743758656.4425476,-0.002850847782792383
1743758656.4435236,-0.002944846305630164
1743758656.4444995,-0.0030268245570053125
1743758656.4454753,-0.0031562828806578572
1743758656.4464514,-0.003076949089004487
1743758656.4474275,-0.003064087398539471
1743758656.4484034,-0.0029936486077684486
1743758656.4493794,-0.0029460483327764272
1743758656.4503555,-0.0030355993551730337
1743758656.4513316,-0.003087406725176977
1743758656.4523075,-0.003101831050932135
1743758656.4532833,-0.00311048564638523
1743758656.4542594,-0.0030553126003717503
1743758656.4552355,-0.003049422667355061
1743758656.4562116,-0.0029980961082096227
1743758656.4571874,-0.0029787434711547856
1743758656.4581635,-0.0030026638113654232
1743758656.4591396,-0.003041248882760471
1743758656.4601154,-0.0030970229423470824
1743758656.4610913,-0.003045455977772392
1743758656.4620674,-0.0029484523870689536
1743758656.4630437,-0.0029691272539846803
1743758656.4640195,-0.002987878877466386
1743758656.4649954,-0.0029129925862541894
1743758656.4659715,-0.002956986779807422
1743758656.4669476,-0.003103273483507651
1743758656.4679234,-0.0031413777440441938
1743758656.4688993,-0.0031271938237182884
1743758656.4698756,-0.0032005174796403426
1743758656.4708517,-0.003243790456905817
1743758656.4718275,-0.0032661481618263123
1743758656.4728034,-0.0033528143190718874
1743758656.4737794,-0.0033858700655941248
1743758656.4747555,-0.0033423566828993975
1743758656.4757314,-0.0034064247297952246
1743758656.4767072,-0.0033370677634558393
