1743758992.6319275,-0.0017886163936396114
1743758992.6329036,-0.0017886163936396114
1743758992.6338797,-0.0017886163936396114
1743758992.6348555,-0.0017886163936396114
1743758992.6358316,-0.0017886163936396114
1743758992.6368077,-0.0017886163936396114
1743758992.6377835,-0.0017886163936396114
1743758992.6387594,-0.0017886163936396114
1743758992.6397355,-0.001827441870463912
1743758992.6407118,-0.0018270812623200332
1743758992.6416876,-0.0018285236948955492
1743758992.6426635,-0.0018290045057540543
1743758992.6436396,-0.0018322499790489647
1743758992.6446157,-0.0018374186957778966
1743758992.6455915,-0.0018517228188184283
1743758992.6465673,-0.0018536460622524493
1743758992.6475437,-0.00185917538712526
1743758992.6485198,-0.0018556895084010968
1743758992.6494956,-0.0018510016025306702
1743758992.6504714,-0.0018530450486793177
1743758992.6514475,-0.0018536460622524493
1743758992.6524236,-0.001853525859537823
1743758992.6533995,-0.0018552086975425917
1743758992.6543753,-0.001851963224247681
1743758992.6553516,-0.0018570117382619865
1743758992.6563277,-0.0018540066703963286
1743758992.6573036,-0.0018365772767755123
1743758992.6582794,-0.0018362166686316335
1743758992.6592555,-0.001837538898492523
1743758992.6602316,-0.0018386207229241598
1743758992.6612074,-0.0018430682233653336
1743758992.6621835,-0.001841745993504444
1743758992.6631596,-0.00184547227765786
1743758992.6641357,-0.0018381399120656545
1743758992.6651115,-0.00183044693832957
1743758992.6660874,-0.0018282832894662964
1743758992.6670635,-0.0018392217364972914
1743758992.6680398,-0.0018567713328327337
1743758992.6690156,-0.0018651855228565759
1743758992.6699915,-0.0018675895771491022
1743758992.6709676,-0.0018726380911634078
1743758992.6719437,-0.0018695128205831234
1743758992.6729195,-0.0018566511301181074
1743758992.6738954,-0.0018604976169861497
1743758992.6748714,-0.0018761239698875708
1743758992.6758478,-0.0018818937001896343
1743758992.6768236,-0.0018877836332063238
1743758992.6777995,-0.0018994432965250766
1743758992.6787755,-0.0019072564729757872
1743758992.6797516,-0.0018980008639495607
1743758992.6807275,-0.0018589349816960073
1743758992.6817033,-0.0018273216677492856
1743758992.6826797,-0.0018252782216006385
1743758992.6836557,-0.0018201095048717066
1743758992.6846316,-0.0017988336243828483
1743758992.6856074,-0.0018017184895338801
1743758992.6865835,-0.001826720654176154
1743758992.6875596,-0.0018645845092834443
1743758992.6885355,-0.0018996837019543292
1743758992.6895115,-0.0018990826883811976
1743758992.6904876,-0.0019044918105393818
1743758992.6914637,-0.0018933129580791343
1743758992.6924396,-0.0018571319409766125
1743758992.6934154,-0.0018244368025982542
1743758992.6943915,-0.0018174650451499277
1743758992.6953676,-0.0017984730162389695
1743758992.6963437,-0.0018094114632699644
1743758992.6973195,-0.001815662004430533
1743758992.6982956,-0.0018148205854281486
1743758992.6992717,-0.0018452318722286072
1743758992.7002475,-0.0018877836332063238
1743758992.7012234,-0.0018978806612349344
1743758992.7021995,-0.0018953564042277816
1743758992.7031758,-0.001886701808774687
1743758992.7041516,-0.0018818937001896343
1743758992.7051275,-0.0018815330920457553
1743758992.7061036,-0.0018566511301181074
1743758992.7070796,-0.0018243165998836277
1743758992.7080555,-0.0017976315972365851
1743758992.7090313,-0.001815662004430533
1743758992.7100077,-0.001827441870463912
1743758992.7109838,-0.001830326735614944
1743758992.7119596,-0.001802800313965517
1743758992.7129354,-0.0017874143664933482
1743758992.7139115,-0.0018139791664257643
1743758992.7148876,-0.0018473955210918807
1743758992.7158635,-0.0018650653201419496
1743758992.7168393,-0.001864824914712697
1743758992.7178156,-0.0018763643753168236
1743758992.7187917,-0.001873840118309671
1743758992.7197676,-0.001872037077590276
1743758992.7207434,-0.001841385385360565
1743758992.7217195,-0.0018524440351061862
1743758992.7226956,-0.0018574925491204916
1743758992.7236714,-0.0018252782216006385
1743758992.7246475,-0.001817945856008433
1743758992.7256236,-0.001805444773687296
1743758992.7265997,-0.0018215519374472225
1743758992.7275755,-0.001823234775451991
1743758992.7285514,-0.0018233549781666173
1743758992.7295275,-0.0018287641003248015
1743758992.7305038,-0.0018347742360561175
1743758992.7314796,-0.0018399429527850492
1743758992.7324555,-0.0018377793039217754
1743758992.7334316,-0.0018335722089098544
1743758992.7344077,-0.0018334520061952279
1743758992.7353835,-0.0018344136279122385
1743758992.7363594,-0.0018351348441999966
1743758992.7373354,-0.0018429480206507071
1743758992.7383118,-0.001849318764525902
1743758992.7392876,-0.001851242007959923
1743758992.7402635,-0.0018446308586554756
1743758992.7412395,-0.001849679372669781
1743758992.7422156,-0.001849318764525902
1743758992.7431915,-0.001853886467681702
1743758992.7441673,-0.001852684440535439
1743758992.7451437,-0.0018594157925545128
1743758992.7461197,-0.0018525642378208126
1743758992.7470956,-0.0018520834269623073
1743758992.7480714,-0.0018546076839694601
1743758992.7490475,-0.0018540066703963286
1743758992.7500236,-0.0018481167373796388
1743758992.7509995,-0.0018469147102333756
1743758992.7519755,-0.0018409045745020596
1743758992.7529516,-0.0018297257220418123
1743758992.7539277,-0.001819388288583949
1743758992.7549036,-0.0018233549781666173
1743758992.7558794,-0.0018362166686316335
1743758992.7568555,-0.0018431884260799597
1743758992.7578316,-0.0018494389672405282
1743758992.7588077,-0.0018513622106745495
1743758992.7597835,-0.0018488379536673967
1743758992.7607596,-0.0018566511301181074
1743758992.7617357,-0.0018703542395855078
1743758992.7627115,-0.0018728784965926601
1743758992.7636874,-0.001864464306568818
1743758992.7646635,-0.001857612751835118
1743758992.7656398,-0.0018537662649670758
1743758992.7666156,-0.001840303560928928
1743758992.7675915,-0.001841024777216686
1743758992.7685676,-0.001848597548238144
1743758992.7695436,-0.001853525859537823
1743758992.7705195,-0.0018657865364297074
1743758992.7714953,-0.001863382482137181
1743758992.7724717,-0.0018537662649670758
1743758992.7734478,-0.0018487177509527704
1743758992.7744236,-0.0018323701817635912
1743758992.7753994,-0.0018201095048717066
1743758992.7763755,-0.0018268408568907805
1743758992.7773516,-0.0018234751808812435
1743758992.7783275,-0.001834173222482986
1743758992.7793033,-0.0018488379536673967
1743758992.7802796,-0.001849679372669781
1743758992.7812557,-0.0018570117382619865
1743758992.7822316,-0.0018566511301181074
1743758992.7832074,-0.0018567713328327337
1743758992.7841835,-0.0018627814685640495
1743758992.7851596,-0.001851963224247681
1743758992.7861354,-0.0018268408568907805
1743758992.7871115,-0.0018229943700227385
1743758992.7880876,-0.0018294853166125596
1743758992.7890637,-0.0018400631554996757
1743758992.7900395,-0.0018487177509527704
1743758992.7910154,-0.001854968292113339
1743758992.7919915,-0.0018571319409766125
1743758992.7929678,-0.0018484773455235178
1743758992.7939436,-0.001841745993504444
1743758992.7949195,-0.0018385005202095333
1743758992.7958956,-0.0018397025473557965
1743758992.7968717,-0.0018435490342238387
1743758992.7978475,-0.0018380197093510282
1743758992.7988234,-0.0018441500477969703
1743758992.7997994,-0.0018490783590966494
1743758992.8007758,-0.0018453520749432334
1743758992.8017516,-0.0018351348441999966
1743758992.8027275,-0.0018299661274710647
1743758992.8037035,-0.0018252782216006385
1743758992.8046796,-0.0018290045057540543
1743758992.8056555,-0.0018401833582143018
1743758992.8066313,-0.0018399429527850492
1743758992.8076077,-0.0018371782903486439
1743758992.8085837,-0.0018388611283534121
1743758992.8095596,-0.001840303560928928
1743758992.8105354,-0.0018437894396530913
1743758992.8115115,-0.0018502803862429126
1743758992.8124876,-0.0018609784278446548
1743758992.8134634,-0.0018639834957103127
1743758992.8144395,-0.0018687916042953656
1743758992.8154156,-0.0018734795101657917
1743758992.8163917,-0.0018776866051777132
1743758992.8173676,-0.001854247075825581
1743758992.8183434,-0.0018333318034806018
1743758992.8193195,-0.001827441870463912
1743758992.8202956,-0.0018435490342238387
1743758992.8212717,-0.0018469147102333756
1743758992.8222475,-0.0018430682233653336
1743758992.8232236,-0.0018445106559408493
1743758992.8241997,-0.0018380197093510282
1743758992.8251755,-0.0018312883573319543
1743758992.8261514,-0.0018257590324591436
1743758992.8271275,-0.0018203499103009594
1743758992.8281038,-0.0018252782216006385
1743758992.8290796,-0.0018416257907898177
1743758992.8300555,-0.0018478763319503863
1743758992.8310316,-0.0018381399120656545
1743758992.8320076,-0.0018312883573319543
1743758992.8329835,-0.0018286438976101752
1743758992.8339593,-0.0018128973419941276
1743758992.8349357,-0.0018140993691403908
1743758992.8359118,-0.0018173448424353015
1743758992.8368876,-0.0018256388297445173
1743758992.8378634,-0.0018234751808812435
1743758992.8388395,-0.0018203499103009594
1743758992.8398156,-0.001808449841552954
1743758992.8407915,-0.0018178256532938065
1743758992.8417673,-0.0018249176134567593
1743758992.8427436,-0.0018312883573319543
1743758992.8437197,-0.0018317691681904594
1743758992.8446956,-0.001834533830626865
1743758992.8456714,-0.0018457126830871125
1743758992.8466475,-0.0018550884948279652
1743758992.8476236,-0.0018518430215330546
1743758992.8485994,-0.0018404237636435545
1743758992.8495755,-0.0018269610596054068
1743758992.8505516,-0.0018374186957778966
1743758992.8515277,-0.0018327307899074702
1743758992.8525035,-0.001820229707586333
1743758992.8534794,-0.0018167438288621699
1743758992.8544555,-0.0018205903157302121
1743758992.8554318,-0.0018264802487469017
1743758992.8564076,-0.0018280428840370436
1743758992.8573835,-0.0018257590324591436
1743758992.8583596,-0.001816383220718291
1743758992.8593357,-0.0018050841655434169
1743758992.8603115,-0.0018160226125744118
1743758992.8612874,-0.0018261196406030224
1743758992.8622634,-0.0018276822758931648
1743758992.8632398,-0.0018353752496292491
1743758992.8642156,-0.001843308628794586
1743758992.8651915,-0.0018412651826459389
1743758992.8661675,-0.0018404237636435545
1743758992.8671436,-0.0018245570053128804
1743758992.8681195,-0.0018217923428764753
1743758992.8690953,-0.0018250378161713857
1743758992.8700716,-0.0018268408568907805
1743758992.8710477,-0.0018268408568907805
1743758992.8720236,-0.001827802478607791
1743758992.8729994,-0.0018422268043629493
1743758992.8739755,-0.001846674304804123
1743758992.8749516,-0.0018505207916721651
1743758992.8759274,-0.0018543672785402074
1743758992.8769035,-0.0018537662649670758
1743758992.8778796,-0.001839822750070423
1743758992.8788557,-0.0018356156550585017
1743758992.8798316,-0.001831889370905086
1743758992.8808074,-0.0018316489654758331
1743758992.8817835,-0.0018299661274710647
1743758992.8827596,-0.0018226337618788594
1743758992.8837357,-0.0018189074777254434
1743758992.8847115,-0.0018282832894662964
1743758992.8856876,-0.0018381399120656545
1743758992.8866637,-0.001839822750070423
1743758992.8876395,-0.0018386207229241598
1743758992.8886154,-0.0018364570740608858
1743758992.8895915,-0.0018389813310680386
1743758992.8905678,-0.0018388611283534121
1743758992.8915436,-0.001848236940094265
1743758992.8925195,-0.0018392217364972914
1743758992.8934956,-0.0018362166686316335
1743758992.8944716,-0.0018393419392119176
1743758992.8954475,-0.0018370580876340174
1743758992.8964233,-0.0018336924116244806
1743758992.8973997,-0.0018385005202095333
1743758992.8983757,-0.001833091398051349
1743758992.8993516,-0.001834533830626865
1743758992.9003274,-0.0018276822758931648
1743758992.9013035,-0.0018276822758931648
1743758992.9022796,-0.0018226337618788594
1743758992.9032555,-0.001817224639720675
1743758992.9042313,-0.0018298459247564384
1743758992.9052076,-0.0018377793039217754
1743758992.9061837,-0.0018374186957778966
1743758992.9071596,-0.0018359762632023807
1743758992.9081354,-0.001845953088516365
1743758992.9091115,-0.0018382601147802805
1743758992.9100876,-0.001834654033341491
1743758992.9110637,-0.0018261196406030224
1743758992.9120395,-0.0018272014650346595
1743758992.9130156,-0.0018264802487469017
1743758992.9139917,-0.0018309277491880755
1743758992.9149675,-0.0018447510613701019
1743758992.9159434,-0.0018447510613701019
1743758992.9169195,-0.0018472753183772547
1743758992.9178958,-0.0018590551844106338
1743758992.9188716,-0.0018552086975425917
1743758992.9198475,-0.0018579733599789969
1743758992.9208236,-0.0018684309961514865
1743758992.9217997,-0.001873840118309671
1743758992.9227755,-0.00185689153554736
1743758992.9237514,-0.00184547227765786
1743758992.9247274,-0.0018334520061952279
1743758992.9257038,-0.001820229707586333
1743758992.9266796,-0.001823234775451991
1743758992.9276555,-0.0018149407881427751
1743758992.9286315,-0.0017982326108097167
1743758992.9296076,-0.0017898184207858746
1743758992.9305835,-0.0018071276116920644
1743758992.9315593,-0.0018215519374472225
1743758992.9325356,-0.0018255186270298908
1743758992.9335117,-0.0018292449111833068
1743758992.9344876,-0.0018342934251976122
1743758992.9354634,-0.0018354954523438754
1743758992.9364395,-0.001834533830626865
1743758992.9374156,-0.0018311681546173278
1743758992.9383914,-0.0018276822758931648
1743758992.9393675,-0.0018327307899074702
1743758992.9403436,-0.0018280428840370436
1743758992.9413197,-0.0018138589637111382
1743758992.9422956,-0.0018353752496292491
1743758992.9432714,-0.001844029845082344
1743758992.9442475,-0.0018386207229241598
1743758992.9452236,-0.0018324903844782175
1743758992.9461997,-0.0018302065329003174
1743758992.9471755,-0.0018269610596054068
1743758992.9481516,-0.001816383220718291
1743758992.9491277,-0.0018124165311356223
1743758992.9501035,-0.0018066468008335593
1743758992.9510794,-0.0018151811935720275
1743758992.9520555,-0.0018090508551260856
1743758992.9530318,-0.0017940255157977956
1743758992.9540076,-0.0017924628805076536
1743758992.9549835,-0.001796429570090322
1743758992.9559596,-0.001802079097677759
1743758992.9569356,-0.0018046033546849118
1743758992.9579115,-0.001812656936564875
1743758992.9588873,-0.0018090508551260856
1743758992.9598637,-0.0018119357202771172
1743758992.9608397,-0.0018167438288621699
1743758992.9618156,-0.0018191478831546962
1743758992.9627914,-0.0018297257220418123
1743758992.9637675,-0.0018479965346650123
1743758992.9647436,-0.0018550884948279652
1743758992.9657195,-0.0018513622106745495
1743758992.9666953,-0.0018479965346650123
1743758992.9676716,-0.0018506409943867914
1743758992.9686477,-0.0018358560604877542
1743758992.9696236,-0.0018128973419941276
1743758992.9705994,-0.0018029205166801433
1743758992.9715755,-0.0018012376786753746
1743758992.9725516,-0.0017947467320855535
1743758992.9735277,-0.0017927032859369064
1743758992.9745035,-0.001793304299510038
1743758992.9754796,-0.0018023195031070117
1743758992.9764557,-0.0018132579501380067
1743758992.9774315,-0.001817224639720675
1743758992.9784074,-0.001819388288583949
1743758992.9793835,-0.0018220327483057278
1743758992.9803598,-0.0018233549781666173
1743758992.9813356,-0.0018239559917397489
1743758992.9823115,-0.0018243165998836277
1743758992.9832876,-0.0018328509926220963
1743758992.9842637,-0.0018335722089098544
1743758992.9852395,-0.0018386207229241598
1743758992.9862154,-0.0018366974794901385
1743758992.9871914,-0.001831528762761207
1743758992.9881678,-0.0018348944387707438
1743758992.9891436,-0.0018344136279122385
1743758992.9901195,-0.001822152951020354
1743758992.9910955,-0.0018148205854281486
1743758992.9920716,-0.001814219571855017
1743758992.9930475,-0.0018184266668669381
1743758992.9940233,-0.0018219125455911013
1743758992.9949996,-0.0018342934251976122
1743758992.9959757,-0.0018326105871928438
1743758992.9969516,-0.0018354954523438754
1743758992.9979274,-0.0018364570740608858
1743758992.9989035,-0.001836817682204765
1743758992.9998796,-0.0018439096423677175
1743758993.0008554,-0.0018430682233653336
1743758993.0018315,-0.0018335722089098544
1743758993.0028076,-0.0018259994378883964
1743758993.0037837,-0.0018282832894662964
1743758993.0047596,-0.0018300863301856912
1743758993.0057354,-0.0018508813998160442
1743758993.0067115,-0.0018561703192596021
1743758993.0076876,-0.001862180454990918
1743758993.0086637,-0.001864464306568818
1743758993.0096395,-0.001867108766290597
1743758993.0106156,-0.0018728784965926601
1743758993.0115917,-0.0018543672785402074
1743758993.0125675,-0.0018175852478645542
1743758993.0135434,-0.0017732304461674428
1743758993.0145195,-0.0017674607158653793
1743758993.0154958,-0.0017835678796253062
1743758993.0164716,-0.0018134983555672592
1743758993.0174475,-0.0018334520061952279
1743758993.0184236,-0.001841385385360565
1743758993.0193996,-0.0018543672785402074
1743758993.0203755,-0.0018618198468470391
1743758993.0213513,-0.001866387550002839
1743758993.0223277,-0.001851963224247681
1743758993.0233037,-0.0018292449111833068
1743758993.0242796,-0.001826239843317649
1743758993.0252554,-0.0018220327483057278
1743758993.0262315,-0.001823715586310496
1743758993.0272076,-0.0018121761257063696
1743758993.0281835,-0.0018131377474233804
1743758993.0291593,-0.0018121761257063696
1743758993.0301356,-0.0018036417329679014
1743758993.0311117,-0.001807728625265196
1743758993.0320876,-0.0018133781528526327
1743758993.0330634,-0.0018203499103009594
1743758993.0340395,-0.0018215519374472225
1743758993.0350156,-0.0018196286940132013
1743758993.0359917,-0.0018160226125744118
1743758993.0369675,-0.0018088104496968328
1743758993.0379436,-0.0018128973419941276
1743758993.0389197,-0.0018138589637111382
1743758993.0398955,-0.0018155418017159067
1743758993.0408714,-0.0018220327483057278
1743758993.0418475,-0.0018255186270298908
1743758993.0428238,-0.001820229707586333
1743758993.0437996,-0.0018243165998836277
1743758993.0447755,-0.0018273216677492856
1743758993.0457516,-0.001822874167308112
1743758993.0467277,-0.0018187872750108174
1743758993.0477035,-0.001823234775451991
1743758993.0486794,-0.001826239843317649
1743758993.0496554,-0.0018268408568907805
1743758993.0506318,-0.0018263600460322752
1743758993.0516076,-0.0018268408568907805
1743758993.0525835,-0.0018324903844782175
1743758993.0535595,-0.0018312883573319543
1743758993.0545356,-0.0018328509926220963
1743758993.0555115,-0.0018336924116244806
1743758993.0564873,-0.0018290045057540543
1743758993.0574636,-0.0018256388297445173
1743758993.0584397,-0.001831889370905086
1743758993.0594156,-0.0018380197093510282
1743758993.0603914,-0.0018436692369384652
1743758993.0613675,-0.0018502803862429126
1743758993.0623436,-0.0018746815373120549
1743758993.0633194,-0.001875402753599813
1743758993.0642955,-0.0018680703880076075
1743758993.0652716,-0.0018578531572643706
1743758993.0662477,-0.0018397025473557965
1743758993.0672235,-0.0018358560604877542
1743758993.0681994,-0.001831889370905086
1743758993.0691755,-0.0018276822758931648
1743758993.0701516,-0.001827441870463912
1743758993.0711277,-0.0018409045745020596
1743758993.0721035,-0.0018578531572643706
1743758993.0730796,-0.0018683107934368602
1743758993.0740557,-0.001865546131000455
1743758993.0750315,-0.00185689153554736
1743758993.0760074,-0.001833091398051349
1743758993.0769835,-0.0018157822071451595
1743758993.0779598,-0.0017982326108097167
1743758993.0789356,-0.0017832072714814272
1743758993.0799115,-0.0017741920678844532
1743758993.0808876,-0.0017753940950307164
1743758993.0818636,-0.0017860921366324586
1743758993.0828395,-0.0017976315972365851
1743758993.0838153,-0.0018030407193947693
1743758993.0847917,-0.0018082094361237012
1743758993.0857677,-0.001817224639720675
1743758993.0867436,-0.0018227539645934857
1743758993.0877194,-0.0018241963971690016
1743758993.0886955,-0.0018162630180036646
1743758993.0896716,-0.0018050841655434169
1743758993.0906475,-0.001799074029812101
1743758993.0916233,-0.0017985932189535957
1743758993.0925996,-0.0018052043682580433
1743758993.0935757,-0.0018136185582818855
1743758993.0945516,-0.0018121761257063696
1743758993.0955274,-0.0018127771392795011
1743758993.0965035,-0.001813017544708754
1743758993.0974796,-0.001810012476843096
1743758993.0984557,-0.0018059255845458012
1743758993.0994315,-0.0017961891646610694
1743758993.1004076,-0.00179486693480018
1743758993.1013837,-0.0017860921366324586
1743758993.1023595,-0.0017864527447763376
1743758993.1033354,-0.0017947467320855535
1743758993.1043115,-0.001791140650646764
1743758993.1052878,-0.001788496190924985
1743758993.1062636,-0.0017929436913661587
1743758993.1072395,-0.0017989538270974748
1743758993.1082156,-0.0017955881510879378
1743758993.1091917,-0.0017899386235005008
1743758993.1101675,-0.0017866931502055902
1743758993.1111434,-0.0017835678796253062
1743758993.1121194,-0.0017815244334766587
1743758993.1130958,-0.0017860921366324586
1743758993.1140716,-0.0017830870687668007
1743758993.1150475,-0.0017826062579082954
1743758993.1160235,-0.0017811638253327799
1743758993.1169996,-0.001786933555634843
1743758993.1179755,-0.001785491123059327
1743758993.1189513,-0.0017931840967954115
1743758993.1199276,-0.0017939053130831696
1743758993.1209037,-0.0017931840967954115
1743758993.1218796,-0.0017949871375148062
1743758993.1228554,-0.001793424502224664
1743758993.1238315,-0.0017899386235005008
1743758993.1248076,-0.0017883759882103588
1743758993.1257834,-0.0017860921366324586
1743758993.1267595,-0.0017916214615052693
1743758993.1277356,-0.0017888567990688642
1743758993.1287117,-0.0017952275429440588
1743758993.1296875,-0.0017985932189535957
1743758993.1306634,-0.0018034013275386486
1743758993.1316395,-0.001812296328420996
1743758993.1326156,-0.0018157822071451595
1743758993.1335917,-0.0018191478831546962
1743758993.1345675,-0.0018276822758931648
1743758993.1355436,-0.0018321297763343387
1743758993.1365197,-0.0018353752496292491
1743758993.1374955,-0.0018300863301856912
1743758993.1384714,-0.0018257590324591436
1743758993.1394475,-0.0018247974107421332
1743758993.1404238,-0.0018245570053128804
1743758993.1413996,-0.0018147003827135224
1743758993.1423755,-0.0018132579501380067
1743758993.1433516,-0.001803281124824022
1743758993.1443276,-0.0017977517999512116
1743758993.1453035,-0.0018031609221093958
1743758993.1462793,-0.0018108538958454803
1743758993.1472557,-0.001819508491298575
1743758993.1482317,-0.001827802478607791
1743758993.1492076,-0.0018282832894662964
1743758993.1501834,-0.001827441870463912
1743758993.1511595,-0.0018189074777254434
1743758993.1521356,-0.0017994346379559799
1743758993.1531115,-0.0017820052443351638
1743758993.1540873,-0.0017817648389059115
1743758993.1550636,-0.0017806830144742743
1743758993.1560397,-0.001774432473313706
1743758993.1570156,-0.0017765961221769795
1743758993.1579914,-0.0017790001764695059
1743758993.1589675,-0.0017841688931984378
1743758993.1599436,-0.0017889770017834904
1743758993.1609197,-0.0017977517999512116
1743758993.1618955,-0.0017996750433852326
1743758993.1628716,-0.0018031609221093958
1743758993.1638477,-0.0017984730162389695
1743758993.1648235,-0.0018031609221093958
1743758993.1657994,-0.0018113347067039854
1743758993.1667755,-0.0018154215990012802
1743758993.1677518,-0.0018154215990012802
1743758993.1687276,-0.0018065265981189328
1743758993.1697035,-0.0017984730162389695
1743758993.1706796,-0.0017915012587906432
1743758993.1716557,-0.0017936649076539168
1743758993.1726315,-0.0017958285565171904
1743758993.1736073,-0.0017991942325267273
1743758993.1745834,-0.0018015982868192539
1743758993.1755598,-0.0018035215302532749
1743758993.1765356,-0.0018026801112508905
1743758993.1775115,-0.0018040023411117802
1743758993.1784875,-0.0018031609221093958
1743758993.1794636,-0.0018036417329679014
1743758993.1804395,-0.001801357881390001
1743758993.1814153,-0.0018021993003923854
1743758993.1823916,-0.001808089233409075
1743758993.1833677,-0.0018112145039893592
1743758993.1843436,-0.0018144599772842698
1743758993.1853194,-0.0018159024098597855
1743758993.1862955,-0.0018139791664257643
1743758993.1872716,-0.0018139791664257643
1743758993.1882474,-0.001813017544708754
1743758993.1892235,-0.0018106134904162276
1743758993.1901996,-0.0018104932877016013
1743758993.1911757,-0.00180628619268968
1743758993.1921515,-0.0018026801112508905
1743758993.1931274,-0.0018029205166801433
1743758993.1941035,-0.0018048437601141645
1743758993.1950796,-0.0018048437601141645
1743758993.1960557,-0.0018056851791165484
1743758993.1970315,-0.0018030407193947693
1743758993.1980076,-0.0018014780841046274
1743758993.1989837,-0.001804242746541033
1743758993.1999595,-0.0018107336931308538
1743758993.2009354,-0.001817224639720675
1743758993.2019114,-0.0018210711265887172
1743758993.2028878,-0.0018320095736197122
1743758993.2038636,-0.0018377793039217754
1743758993.2048395,-0.0018445106559408493
1743758993.2058156,-0.001842587412506828
1743758993.2067916,-0.0018359762632023807
1743758993.2077675,-0.001814219571855017
1743758993.2087433,-0.0018072478144066908
1743758993.2097197,-0.0018019588949631327
1743758993.2106957,-0.0017961891646610694
1743758993.2116716,-0.0017973911918073326
1743758993.2126474,-0.0018031609221093958
1743758993.2136235,-0.0018107336931308538
1743758993.2145996,-0.0018131377474233804
1743758993.2155755,-0.0018041225438264065
1743758993.2165515,-0.001793304299510038
1743758993.2175276,-0.001779721392757264
1743758993.2185037,-0.0017701051755871584
1743758993.2194796,-0.0017559212552612528
1743758993.2204554,-0.0017501515249591898
1743758993.2214315,-0.001751473754820079
1743758993.2224076,-0.0017639748371412163
1743758993.2233837,-0.0017758749058892217
1743758993.2243595,-0.0017811638253327799
1743758993.2253356,-0.001785491123059327
1743758993.2263117,-0.0017840486904838113
1743758993.2272875,-0.0017804426090450218
1743758993.2282634,-0.0017803224063303955
1743758993.2292395,-0.0017845295013423166
1743758993.2302158,-0.001788135582781106
1743758993.2311916,-0.0017874143664933482
1743758993.2321675,-0.001785491123059327
1743758993.2331436,-0.0017872941637787217
1743758993.2341197,-0.0017887365963542377
1743758993.2350955,-0.0017928234886515325
1743758993.2360713,-0.0017931840967954115
1743758993.2370474,-0.0017949871375148062
1743758993.2380238,-0.0017960689619464431
1743758993.2389996,-0.0017947467320855535
1743758993.2399755,-0.001788496190924985
1743758993.2409515,-0.0017829668660521746
1743758993.2419276,-0.0017781587574671215
1743758993.2429035,-0.0017720284190211797
1743758993.2438793,-0.0017768365276062323
1743758993.2448556,-0.001782486055193669
1743758993.2458317,-0.0017880153800664798
1743758993.2468076,-0.0017899386235005008
1743758993.2477834,-0.0017929436913661587
1743758993.2487595,-0.001793304299510038
1743758993.2497356,-0.001790659839788259
1743758993.2507114,-0.001793424502224664
1743758993.2516875,-0.00179486693480018
1743758993.2526636,-0.0017957083538025643
1743758993.2536397,-0.0017929436913661587
1743758993.2546155,-0.0017875345692079745
1743758993.2555914,-0.0017930638940807852
1743758993.2565675,-0.0017973911918073326
1743758993.2575436,-0.0017999154488144854
1743758993.2585196,-0.0018026801112508905
1743758993.2594955,-0.0018007568678168695
1743758993.2604716,-0.0018037619356825274
1743758993.2614477,-0.001811454909418612
1743758993.2624235,-0.001810012476843096
1743758993.2633994,-0.0018019588949631327
1743758993.2643754,-0.0018021993003923854
1743758993.2653518,-0.0017999154488144854
1743758993.2663276,-0.0018026801112508905
1743758993.2673035,-0.0018019588949631327
1743758993.2682796,-0.0018086902469822066
1743758993.2692556,-0.0018139791664257643
1743758993.2702315,-0.0018199893021570805
1743758993.2712073,-0.0018217923428764753
1743758993.2721837,-0.00182587923517377
1743758993.2731597,-0.0018276822758931648
1743758993.2741356,-0.0018299661274710647
1743758993.2751114,-0.001827802478607791
1743758993.2760875,-0.0018264802487469017
1743758993.2770636,-0.0018173448424353015
1743758993.2780395,-0.0017927032859369064
1743758993.2790155,-0.0017803224063303955
1743758993.2799916,-0.0017851305149154482
1743758993.2809677,-0.001799074029812101
1743758993.2819436,-0.001803281124824022
1743758993.2829194,-0.0018109740985601064
1743758993.2838955,-0.0018159024098597855
1743758993.2848716,-0.0018305671410441962
1743758993.2858477,-0.0018405439663581808
1743758993.2868235,-0.0018407843717874333
1743758993.2877996,-0.0018392217364972914
1743758993.2887757,-0.0018388611283534121
1743758993.2897515,-0.0018178256532938065
1743758993.2907274,-0.001794145718512422
1743758993.2917035,-0.0017691435538701478
1743758993.2926798,-0.0017663788914337427
1743758993.2936556,-0.0017808032171889006
1743758993.2946315,-0.0017822456497644165
1743758993.2956076,-0.0017788799737548796
1743758993.2965837,-0.0017875345692079745
1743758993.2975595,-0.0017953477456586853
1743758993.2985353,-0.001802079097677759
1743758993.2995117,-0.0018025599085362643
1743758993.3004878,-0.0018102528822723488
1743758993.3014636,-0.0018171044370060487
1743758993.3024395,-0.0018243165998836277
1743758993.3034155,-0.0018255186270298908
1743758993.3043916,-0.0018287641003248015
1743758993.3053675,-0.0018259994378883964
1743758993.3063433,-0.001826600451461528
1743758993.3073196,-0.0018244368025982542
1743758993.3082957,-0.001826600451461528
1743758993.3092716,-0.0018177054505791803
1743758993.3102474,-0.0018096518686992172
1743758993.3112235,-0.0018092912605553381
1743758993.3121996,-0.0018095316659845907
1743758993.3131754,-0.0018109740985601064
1743758993.3141515,-0.0018183064641523119
1743758993.3151276,-0.001817224639720675
1743758993.3161037,-0.0018166236261475434
1743758993.3170795,-0.0018180660587230593
1743758993.3180554,-0.0018175852478645542
1743758993.3190315,-0.0018180660587230593
1743758993.3200076,-0.0018169842342914226
1743758993.3209836,-0.001820950923874091
1743758993.3219595,-0.001820950923874091
1743758993.3229356,-0.0018239559917397489
1743758993.3239117,-0.0018214317347325963
1743758993.3248875,-0.0018189074777254434
1743758993.3258634,-0.0018160226125744118
1743758993.3268394,-0.0018162630180036646
1743758993.3278158,-0.0018165034234329171
1743758993.3287916,-0.0018238357890251226
1743758993.3297675,-0.0018264802487469017
1743758993.3307436,-0.0018256388297445173
1743758993.3317196,-0.0018227539645934857
1743758993.3326955,-0.0018215519374472225
1743758993.3336713,-0.0018252782216006385
1743758993.3346477,-0.0018269610596054068
1743758993.3356237,-0.0018291247084686808
1743758993.3365996,-0.001826600451461528
1743758993.3375754,-0.001818667072296191
1743758993.3385515,-0.0018213115320179698
1743758993.3395276,-0.0018233549781666173
1743758993.3405035,-0.0018217923428764753
1743758993.3414795,-0.0018312883573319543
1743758993.3424556,-0.0018335722089098544
1743758993.3434317,-0.0018397025473557965
1743758993.3444076,-0.001845111669513981
1743758993.3453834,-0.001856530927403481
1743758993.3463595,-0.0018592955898398863
1743758993.3473356,-0.0018570117382619865
1743758993.3483117,-0.001838380317494907
1743758993.3492875,-0.0018234751808812435
1743758993.3502636,-0.0017999154488144854
1743758993.3512397,-0.001791140650646764
1743758993.3522155,-0.0017997952460998591
1743758993.3531914,-0.0018078488279798224
1743758993.3541675,-0.001807368017121317
1743758993.3551438,-0.0018102528822723488
1743758993.3561196,-0.0017994346379559799
1743758993.3570955,-0.0017832072714814272
1743758993.3580716,-0.0017780385547524955
1743758993.3590477,-0.0017798415954718902
1743758993.3600235,-0.0017969103809488275
1743758993.3609993,-0.0018034013275386486
1743758993.3619757,-0.0018050841655434169
1743758993.3629518,-0.0018012376786753746
1743758993.3639276,-0.0018113347067039854
1743758993.3649035,-0.0018103730849869748
1743758993.3658795,-0.0018082094361237012
1743758993.3668556,-0.0017989538270974748
1743758993.3678315,-0.0017978720026658379
1743758993.3688073,-0.001800155854243738
1743758993.3697836,-0.001804362949255659
1743758993.3707597,-0.0018071276116920644
1743758993.3717356,-0.0017959487592318169
1743758993.3727114,-0.001801357881390001
1743758993.3736875,-0.0017997952460998591
1743758993.3746636,-0.0017977517999512116
1743758993.3756394,-0.0017931840967954115
1743758993.3766155,-0.0017909002452175112
1743758993.3775916,-0.0018000356515291114
1743758993.3785677,-0.001799074029812101
1743758993.3795435,-0.0017991942325267273
1743758993.3805194,-0.0017989538270974748
1743758993.3814955,-0.0017988336243828483
1743758993.3824716,-0.0018014780841046274
1743758993.3834476,-0.0018055649764019222
1743758993.3844235,-0.0017999154488144854
1743758993.3853996,-0.0017991942325267273
1743758993.3863757,-0.001807368017121317
1743758993.3873515,-0.0018009972732461223
1743758993.3883274,-0.0018017184895338801
1743758993.3893034,-0.0017942659212270484
1743758993.3902798,-0.0017946265293709272
1743758993.3912556,-0.0017922224750784009
1743758993.3922315,-0.0017922224750784009
1743758993.3932076,-0.0017924628805076536
1743758993.3941836,-0.001788135582781106
1743758993.3951595,-0.0017882557854957326
1743758993.3961353,-0.0017832072714814272
1743758993.3971117,-0.0017859719339178325
1743758993.3980877,-0.0017919820696491483
1743758993.3990636,-0.001800155854243738
1743758993.4000394,-0.0018143397745696435
1743758993.4010155,-0.001818667072296191
1743758993.4019916,-0.0018181862614376858
1743758993.4029675,-0.0018247974107421332
1743758993.4039435,-0.001834533830626865
1743758993.4049196,-0.0018326105871928438
1743758993.4058957,-0.0018312883573319543
1743758993.4068716,-0.0018306873437588227
1743758993.4078474,-0.001834173222482986
1743758993.4088235,-0.0018320095736197122
1743758993.4097996,-0.0018270812623200332
1743758993.4107757,-0.0018231145727373645
1743758993.4117515,-0.0018103730849869748
1743758993.4127276,-0.0018071276116920644
1743758993.4137037,-0.0018002760569583642
1743758993.4146795,-0.001805444773687296
1743758993.4156554,-0.0018055649764019222
1743758993.4166315,-0.001804723557399538
1743758993.4176078,-0.0018041225438264065
1743758993.4185836,-0.0018162630180036646
1743758993.4195595,-0.0018227539645934857
1743758993.4205356,-0.0018223933564496069
1743758993.4215117,-0.001826239843317649
1743758993.4224875,-0.0018250378161713857
1743758993.4234633,-0.001822874167308112
1743758993.4244397,-0.0018290045057540543
1743758993.4254158,-0.0018226337618788594
1743758993.4263916,-0.0018227539645934857
1743758993.4273674,-0.00180628619268968
1743758993.4283435,-0.0017936649076539168
1743758993.4293196,-0.0017886163936396114
1743758993.4302955,-0.0017874143664933482
1743758993.4312713,-0.0017904194343590061
1743758993.4322476,-0.0017887365963542377
1743758993.4332237,-0.0017887365963542377
1743758993.4341996,-0.0017949871375148062
1743758993.4351754,-0.0017942659212270484
1743758993.4361515,-0.0017899386235005008
1743758993.4371276,-0.001791140650646764
1743758993.4381034,-0.0017815244334766587
1743758993.4390795,-0.0017841688931984378
1743758993.4400556,-0.0017953477456586853
1743758993.4410317,-0.0018003962596729907
1743758993.4420075,-0.0018076084225505697
1743758993.4429834,-0.0018133781528526327
1743758993.4439595,-0.0018113347067039854
1743758993.4449358,-0.0018166236261475434
1743758993.4459116,-0.0018165034234329171
1743758993.4468875,-0.001817945856008433
1743758993.4478636,-0.0018107336931308538
1743758993.4488397,-0.0018136185582818855
1743758993.4498155,-0.0018071276116920644
1743758993.4507914,-0.0017984730162389695
1743758993.4517674,-0.0017953477456586853
1743758993.4527438,-0.0017940255157977956
1743758993.4537196,-0.0017942659212270484
1743758993.4546955,-0.001799074029812101
1743758993.4556715,-0.001793785110368543
1743758993.4566476,-0.0017919820696491483
1743758993.4576235,-0.0017912608533613905
1743758993.4585993,-0.001799074029812101
1743758993.4595757,-0.0018017184895338801
1743758993.4605517,-0.001802079097677759
1743758993.4615276,-0.0018007568678168695
1743758993.4625034,-0.0018017184895338801
1743758993.4634795,-0.0017969103809488275
1743758993.4644556,-0.001800155854243738
1743758993.4654315,-0.0017977517999512116
1743758993.4664075,-0.0018014780841046274
1743758993.4673836,-0.0018036417329679014
1743758993.4683597,-0.00179715078637808
1743758993.4693356,-0.001802079097677759
1743758993.4703114,-0.0017985932189535957
1743758993.4712875,-0.0018044831519702853
1743758993.4722636,-0.001804242746541033
1743758993.4732397,-0.0018023195031070117
1743758993.4742155,-0.0018031609221093958
1743758993.4751916,-0.0018011174759607485
1743758993.4761677,-0.0017983528135243432
1743758993.4771435,-0.0018037619356825274
1743758993.4781194,-0.0018037619356825274
1743758993.4790955,-0.0017951073402294327
1743758993.4800718,-0.0017439009837986212
1743758993.4810476,-0.001638723608500593
1743758993.4820235,-0.0015787424539020602
1743758993.4829996,-0.0015569857625546968
1743758993.4839756,-0.0015462877209529542
1743758993.4849515,-0.0015431624503726702
1743758993.4859273,-0.0015389553553607491
1743758993.4869037,-0.0015512160322526333
1743758993.4878798,-0.0015706888720220969
1743758993.4888556,-0.0016033840104004553
1743758993.4898314,-0.0016402862437907351
1743758993.4908075,-0.0016847612482024726
1743758993.4917836,-0.001736208010062537
1743758993.4927595,-0.0017977517999512116
1743758993.4937353,-0.0018445106559408493
1743758993.4947116,-0.0018851391734845447
1743758993.4956877,-0.0019117039734169608
1743758993.4966636,-0.0019389899896371354
1743758993.4976394,-0.0019560587751140724
1743758993.4986155,-0.0019526930991045355
1743758993.4995916,-0.0019373071516323667
1743758993.5005674,-0.0019005251209567135
1743758993.5015435,-0.0018792492404678552
1743758993.5025196,-0.0018708350504440128
1743758993.5034957,-0.001860738022415402
1743758993.5044715,-0.0018543672785402074
1743758993.5054474,-0.001848236940094265
1743758993.5064235,-0.0018400631554996757
1743758993.5073998,-0.001838740925638786
1743758993.5083756,-0.0018374186957778966
1743758993.5093515,-0.0018298459247564384
1743758993.5103276,-0.0018339328170537334
1743758993.5113037,-0.001836817682204765
1743758993.5122795,-0.001833812614339107
1743758993.5132554,-0.001816383220718291
1743758993.5142314,-0.001822152951020354
1743758993.5152078,-0.0018127771392795011
1743758993.5161836,-0.0018034013275386486
1743758993.5171595,-0.0017900588262151273
1743758993.5181355,-0.0017882557854957326
1743758993.5191116,-0.0017840486904838113
1743758993.5200875,-0.0017847699067715694
1743758993.5210633,-0.0017800820009011428
1743758993.5220397,-0.0017768365276062323
1743758993.5230157,-0.0017838082850545587
1743758993.5239916,-0.0017954679483733115
1743758993.5249674,-0.001796429570090322
1743758993.5259435,-0.0018071276116920644
1743758993.5269196,-0.0018121761257063696
1743758993.5278955,-0.0018190276804400697
1743758993.5288715,-0.0018250378161713857
1743758993.5298476,-0.0018431884260799597
1743758993.5308237,-0.0018381399120656545
1743758993.5317996,-0.001834654033341491
1743758993.5327754,-0.0018306873437588227
1743758993.5337515,-0.0018323701817635912
1743758993.5347276,-0.0018291247084686808
1743758993.5357037,-0.0018291247084686808
1743758993.5366795,-0.001823715586310496
1743758993.5376556,-0.0018270812623200332
1743758993.5386317,-0.0018253984243152648
1743758993.5396075,-0.0018257590324591436
1743758993.5405834,-0.0018282832894662964
1743758993.5415595,-0.0018252782216006385
1743758993.5425358,-0.0018292449111833068
1743758993.5435116,-0.001829365113897933
1743758993.5444875,-0.0018273216677492856
1743758993.5454636,-0.0018269610596054068
1743758993.5464396,-0.0018255186270298908
1743758993.5474155,-0.0018309277491880755
1743758993.5483913,-0.0018276822758931648
1743758993.5493677,-0.0018348944387707438
1743758993.5503438,-0.0018348944387707438
1743758993.5513196,-0.0018323701817635912
1743758993.5522954,-0.001833091398051349
1743758993.5532715,-0.0018286438976101752
1743758993.5542476,-0.00182587923517377
1743758993.5552235,-0.0018216721401618488
1743758993.5561993,-0.0018199893021570805
1743758993.5571756,-0.001822152951020354
1743758993.5581517,-0.00182816308675167
1743758993.5591276,-0.0018160226125744118
1743758993.5601034,-0.0018203499103009594
1743758993.5610795,-0.0018243165998836277
1743758993.5620556,-0.0018270812623200332
1743758993.5630314,-0.0018223933564496069
1743758993.5640075,-0.0018199893021570805
1743758993.5649836,-0.001819869099442454
1743758993.5659597,-0.0018180660587230593
1743758993.5669355,-0.0018144599772842698
1743758993.5679114,-0.0018102528822723488
1743758993.5688875,-0.0018144599772842698
1743758993.5698638,-0.0018112145039893592
1743758993.5708396,-0.0018014780841046274
1743758993.5718155,-0.0017856113257739535
1743758993.5727916,-0.0017871739610640957
1743758993.5737677,-0.0017987134216682222
1743758993.5747435,-0.0017917416642198956
1743758993.5757194,-0.0017844092986276903
1743758993.5766954,-0.001785491123059327
1743758993.5776718,-0.001785010312200822
1743758993.5786476,-0.001786572947490964
1743758993.5796235,-0.0017936649076539168
1743758993.5805995,-0.00179486693480018
1743758993.5815756,-0.0017979922053804641
1743758993.5825515,-0.0017916214615052693
1743758993.5835273,-0.0017894578126419957
1743758993.5845037,-0.0018040023411117802
1743758993.5854797,-0.001805805381831175
1743758993.5864556,-0.0018029205166801433
1743758993.5874314,-0.0018008770705314958
1743758993.5884075,-0.0017994346379559799
1743758993.5893836,-0.0018023195031070117
1743758993.5903594,-0.0018040023411117802
1743758993.5913355,-0.0018029205166801433
1743758993.5923116,-0.001801357881390001
1743758993.5932877,-0.0017995548406706063
1743758993.5942636,-0.0017970305836634535
1743758993.5952394,-0.0017923426777930272
1743758993.5962155,-0.00179258308322228
1743758993.5971916,-0.001793304299510038
1743758993.5981677,-0.0017890972044981165
1743758993.5991435,-0.0017880153800664798
1743758993.6001196,-0.001789578015356622
1743758993.6010957,-0.0017982326108097167
1743758993.6020715,-0.0018019588949631327
1743758993.6030474,-0.0018000356515291114
1743758993.6040235,-0.0018012376786753746
1743758993.6049998,-0.0017989538270974748
1743758993.6059756,-0.0017976315972365851
1743758993.6069515,-0.0017943861239416747
1743758993.6079276,-0.0017977517999512116
1743758993.6089036,-0.0017978720026658379
1743758993.6098795,-0.0017955881510879378
1743758993.6108553,-0.0017970305836634535
1743758993.6118317,-0.0017947467320855535
1743758993.6128078,-0.0017997952460998591
1743758993.6137836,-0.0017996750433852326
1743758993.6147594,-0.0018017184895338801
1743758993.6157355,-0.0017977517999512116
1743758993.6167116,-0.001800516462387617
1743758993.6176875,-0.0017991942325267273
1743758993.6186633,-0.0018035215302532749
1743758993.6196396,-0.001807007408977438
1743758993.6206157,-0.0018133781528526327
1743758993.6215916,-0.0018128973419941276
1743758993.6225674,-0.0018162630180036646
1743758993.6235435,-0.0018208307211594647
1743758993.6245196,-0.0018214317347325963
1743758993.6254954,-0.0018199893021570805
1743758993.6264715,-0.0018199893021570805
1743758993.6274476,-0.0018247974107421332
1743758993.6284237,-0.0018253984243152648
1743758993.6293995,-0.0018229943700227385
1743758993.6303754,-0.0018217923428764753
1743758993.6313515,-0.001815662004430533
1743758993.6323278,-0.001800636665102243
1743758993.6333036,-0.0017985932189535957
1743758993.6342795,-0.0017976315972365851
1743758993.6352556,-0.0017985932189535957
1743758993.6362317,-0.0018035215302532749
1743758993.6372075,-0.0018018386922485062
1743758993.6381834,-0.0018096518686992172
1743758993.6391594,-0.001813738760996512
1743758993.6401358,-0.0018208307211594647
1743758993.6411116,-0.0018269610596054068
1743758993.6420875,-0.0018255186270298908
1743758993.6430635,-0.0018222731537349804
1743758993.6440396,-0.0018210711265887172
1743758993.6450155,-0.0018173448424353015
1743758993.6459913,-0.001813738760996512
1743758993.6469676,-0.00180628619268968
1743758993.6479437,-0.001805444773687296
1743758993.6489196,-0.0017953477456586853
1743758993.6498954,-0.0017835678796253062
1743758993.6508715,-0.0017667394995776215
1743758993.6518476,-0.001765777877860611
1743758993.6528234,-0.0017686627430116425
1743758993.6537995,-0.0017662586887191162
1743758993.6547756,-0.0017725092298796848
1743758993.6557517,-0.0017804426090450218
1743758993.6567276,-0.0017747930814575848
1743758993.6577034,-0.0017768365276062323
1743758993.6586795,-0.0017769567303208584
1743758993.6596556,-0.00177755774389399
1743758993.6606317,-0.0017758749058892217
1743758993.6616075,-0.0017800820009011428
1743758993.6625836,-0.0017883759882103588
1743758993.6635597,-0.0017889770017834904
1743758993.6645355,-0.0017847699067715694
1743758993.6655114,-0.0017921022723637748
1743758993.6664875,-0.0017945063266563011
1743758993.6674638,-0.0017929436913661587
1743758993.6684396,-0.001794145718512422
1743758993.6694155,-0.0017900588262151273
1743758993.6703916,-0.0017894578126419957
1743758993.6713676,-0.001785851731203206
1743758993.6723435,-0.0017848901094861954
1743758993.6733193,-0.0017847699067715694
1743758993.6742957,-0.0017955881510879378
1743758993.6752717,-0.0017899386235005008
1743758993.6762476,-0.0017844092986276903
1743758993.6772234,-0.001785010312200822
1743758993.6781995,-0.001788496190924985
1743758993.6791756,-0.0017921022723637748
1743758993.6801515,-0.0017947467320855535
1743758993.6811273,-0.0017966699755195747
1743758993.6821036,-0.001796790178234201
1743758993.6830797,-0.00179715078637808
1743758993.6840556,-0.0017947467320855535
1743758993.6850314,-0.0017979922053804641
1743758993.6860075,-0.0018026801112508905
1743758993.6869836,-0.0017953477456586853
1743758993.6879597,-0.0017949871375148062
1743758993.6889355,-0.0017930638940807852
1743758993.6899116,-0.0017953477456586853
1743758993.6908877,-0.0018017184895338801
1743758993.6918635,-0.0018055649764019222
1743758993.6928394,-0.0017982326108097167
1743758993.6938155,-0.0017985932189535957
1743758993.6947918,-0.0017977517999512116
1743758993.6957676,-0.0017999154488144854
1743758993.6967435,-0.001804242746541033
1743758993.6977196,-0.001802079097677759
1743758993.6986957,-0.0018068872062628116
1743758993.6996715,-0.0018098922741284697
1743758993.7006474,-0.0018159024098597855
1743758993.7016234,-0.0018174650451499277
1743758993.7025998,-0.0018127771392795011
1743758993.7035756,-0.0018095316659845907
1743758993.7045515,-0.0018011174759607485
1743758993.7055275,-0.0018044831519702853
1743758993.7065036,-0.0018030407193947693
1743758993.7074795,-0.0017945063266563011
1743758993.7084553,-0.0017991942325267273
1743758993.7094316,-0.0017970305836634535
1743758993.7104077,-0.0017999154488144854
1743758993.7113836,-0.001796309367375696
1743758993.7123594,-0.001800155854243738
1743758993.7133355,-0.0017940255157977956
1743758993.7143116,-0.001786212339347085
1743758993.7152874,-0.0017877749746372273
1743758993.7162635,-0.0017883759882103588
1743758993.7172396,-0.0017921022723637748
1743758993.7182157,-0.0017888567990688642
1743758993.7191916,-0.0017942659212270484
1743758993.7201674,-0.0018003962596729907
1743758993.7211435,-0.0017996750433852326
1743758993.7221196,-0.0017939053130831696
1743758993.7230957,-0.0017924628805076536
1743758993.7240715,-0.001791140650646764
1743758993.7250476,-0.0017935447049392903
1743758993.7260237,-0.00179715078637808
1743758993.7269995,-0.001802079097677759
1743758993.7279754,-0.0018029205166801433
1743758993.7289515,-0.0018026801112508905
1743758993.7299278,-0.0018025599085362643
1743758993.7309036,-0.00180628619268968
1743758993.7318795,-0.0018030407193947693
1743758993.7328556,-0.0017979922053804641
1743758993.7338316,-0.001785370920344701
1743758993.7348075,-0.0017787597710402531
1743758993.7357833,-0.001778278960181748
1743758993.7367597,-0.0017799617981865167
1743758993.7377357,-0.0017818850416205375
1743758993.7387116,-0.0017856113257739535
1743758993.7396874,-0.0017871739610640957
1743758993.7406635,-0.0017916214615052693
1743758993.7416396,-0.001791140650646764
1743758993.7426155,-0.0017902992316443796
1743758993.7435913,-0.0017942659212270484
1743758993.7445676,-0.001791861866934522
1743758993.7455437,-0.0017955881510879378
1743758993.7465196,-0.0017988336243828483
1743758993.7474954,-0.0017983528135243432
1743758993.7484715,-0.001797511394521959
1743758993.7494476,-0.0017985932189535957
1743758993.7504237,-0.0017979922053804641
1743758993.7513995,-0.0017981124080950906
1743758993.7523756,-0.001799074029812101
1743758993.7533517,-0.0017949871375148062
1743758993.7543275,-0.0017989538270974748
1743758993.7553034,-0.0018007568678168695
1743758993.7562795,-0.00179715078637808
1743758993.7572558,-0.0018000356515291114
1743758993.7582316,-0.0018074882198359434
1743758993.7592075,-0.0018078488279798224
1743758993.7601836,-0.0018112145039893592
1743758993.7611597,-0.0018160226125744118
1743758993.7621355,-0.0018145801799988959
1743758993.7631114,-0.0018145801799988959
1743758993.7640874,-0.0018110943012747329
1743758993.7650638,-0.0018086902469822066
1743758993.7660396,-0.0018040023411117802
1743758993.7670155,-0.0018049639628287906
1743758993.7679915,-0.0018012376786753746
1743758993.7689676,-0.0018071276116920644
1743758993.7699435,-0.0018139791664257643
1743758993.7709193,-0.0018128973419941276
1743758993.7718956,-0.0018086902469822066
1743758993.7728717,-0.0017953477456586853
1743758993.7738476,-0.0017945063266563011
1743758993.7748234,-0.0018083296388383275
1743758993.7757995,-0.0018119357202771172
1743758993.7767756,-0.0018112145039893592
1743758993.7777514,-0.0018068872062628116
1743758993.7787275,-0.0018118155175624907
1743758993.7797036,-0.0018173448424353015
1743758993.7806797,-0.0018064063954043065
1743758993.7816556,-0.0018014780841046274
1743758993.7826314,-0.00179715078637808
1743758993.7836075,-0.0018024397058216378
1743758993.7845836,-0.0018131377474233804
1743758993.7855597,-0.0018169842342914226
1743758993.7865355,-0.0018138589637111382
1743758993.7875116,-0.0018083296388383275
1743758993.7884877,-0.0018052043682580433
1743758993.7894635,-0.0017994346379559799
1743758993.7904394,-0.0017995548406706063
1743758993.7914155,-0.001805444773687296
1743758993.7923918,-0.0018072478144066908
1743758993.7933676,-0.0018145801799988959
1743758993.7943435,-0.001824677208027507
1743758993.7953196,-0.001831528762761207
1743758993.7962956,-0.001841385385360565
1743758993.7972715,-0.001845111669513981
1743758993.7982473,-0.0018441500477969703
1743758993.7992237,-0.0018317691681904594
1743758993.8001997,-0.0018250378161713857
1743758993.8011756,-0.0018203499103009594
1743758993.8021514,-0.0018178256532938065
1743758993.8031275,-0.00180628619268968
1743758993.8041036,-0.001808089233409075
1743758993.8050795,-0.001817945856008433
1743758993.8060553,-0.0018064063954043065
1743758993.8070316,-0.0018056851791165484
1743758993.8080077,-0.001805805381831175
1743758993.8089836,-0.0018201095048717066
1743758993.8099594,-0.001827802478607791
1743758993.8109355,-0.0018314085600465806
1743758993.8119116,-0.001826600451461528
1743758993.8128877,-0.0018223933564496069
1743758993.8138635,-0.0018147003827135224
1743758993.8148396,-0.0018219125455911013
1743758993.8158157,-0.0018249176134567593
1743758993.8167915,-0.0018184266668669381
1743758993.8177674,-0.0017983528135243432
1743758993.8187435,-0.0017817648389059115
1743758993.8197198,-0.0017883759882103588
1743758993.8206956,-0.0017888567990688642
1743758993.8216715,-0.0017970305836634535
1743758993.8226476,-0.0018037619356825274
1743758993.8236237,-0.0018127771392795011
1743758993.8245995,-0.0018139791664257643
1743758993.8255754,-0.0018171044370060487
1743758993.8265514,-0.0018151811935720275
1743758993.8275278,-0.0018065265981189328
1743758993.8285036,-0.0018127771392795011
1743758993.8294795,-0.0018053245709726696
1743758993.8304555,-0.001802800313965517
1743758993.8314316,-0.0018064063954043065
1743758993.8324075,-0.0018113347067039854
1743758993.8333833,-0.0018072478144066908
1743758993.8343596,-0.0018025599085362643
1743758993.8353357,-0.0018023195031070117
1743758993.8363116,-0.0018050841655434169
1743758993.8372874,-0.0018127771392795011
1743758993.8382635,-0.0018125367338502488
1743758993.8392396,-0.0018108538958454803
1743758993.8402154,-0.0018125367338502488
1743758993.8411915,-0.0018177054505791803
1743758993.8421676,-0.0018110943012747329
1743758993.8431437,-0.0018138589637111382
1743758993.8441195,-0.001824677208027507
1743758993.8450954,-0.0018162630180036646
1743758993.8460715,-0.001811454909418612
1743758993.8470476,-0.0018104932877016013
1743758993.8480237,-0.0018136185582818855
1743758993.8489995,-0.001812656936564875
1743758993.8499756,-0.0018103730849869748
1743758993.8509517,-0.0018169842342914226
1743758993.8519275,-0.0018217923428764753
1743758993.8529034,-0.001811575112133238
1743758993.8538795,-0.001800155854243738
1743758993.8548558,-0.0018109740985601064
1743758993.8558316,-0.0018159024098597855
1743758993.8568075,-0.0018072478144066908
1743758993.8577836,-0.0018046033546849118
1743758993.8587596,-0.001807007408977438
1743758993.8597355,-0.0018076084225505697
1743758993.8607113,-0.0018030407193947693
1743758993.8616877,-0.001807368017121317
1743758993.8626637,-0.0018223933564496069
1743758993.8636396,-0.00182587923517377
1743758993.8646154,-0.0018252782216006385
1743758993.8655915,-0.001826600451461528
1743758993.8665676,-0.001818667072296191
1743758993.8675435,-0.001812656936564875
1743758993.8685193,-0.0018159024098597855
1743758993.8694956,-0.0018245570053128804
1743758993.8704717,-0.0018151811935720275
1743758993.8714476,-0.0018102528822723488
1743758993.8724234,-0.0018240761944543753
1743758993.8733995,-0.0018296055193271858
1743758993.8743756,-0.0018296055193271858
1743758993.8753517,-0.0018363368713462597
1743758993.8763275,-0.0018397025473557965
1743758993.8773036,-0.0018429480206507071
1743758993.8782797,-0.001845953088516365
1743758993.8792555,-0.0018406641690728073
1743758993.8802314,-0.001833812614339107
1743758993.8812075,-0.001834533830626865
1743758993.8821838,-0.0018208307211594647
1743758993.8831596,-0.0017984730162389695
1743758993.8841355,-0.0017949871375148062
1743758993.8851116,-0.0017981124080950906
1743758993.8860877,-0.0017991942325267273
1743758993.8870635,-0.0017993144352413538
1743758993.8880394,-0.0018038821383971537
1743758993.8890154,-0.001804723557399538
1743758993.8899918,-0.0018090508551260856
1743758993.8909676,-0.0018012376786753746
1743758993.8919435,-0.0017928234886515325
1743758993.8929195,-0.0017886163936396114
1743758993.8938956,-0.0017811638253327799
1743758993.8948715,-0.0017996750433852326
1743758993.8958473,-0.0018181862614376858
1743758993.8968236,-0.001812296328420996
1743758993.8977997,-0.0018103730849869748
1743758993.8987756,-0.0018140993691403908
1743758993.8997514,-0.001815662004430533
1743758993.9007275,-0.001815301396286654
1743758993.9017036,-0.0018112145039893592
1743758993.9026794,-0.001802079097677759
1743758993.9036555,-0.0017985932189535957
1743758993.9046316,-0.001796790178234201
1743758993.9056077,-0.001804362949255659
1743758993.9065835,-0.0017958285565171904
1743758993.9075594,-0.0017961891646610694
1743758993.9085355,-0.001804242746541033
1743758993.9095116,-0.0018144599772842698
1743758993.9104877,-0.0018034013275386486
1743758993.9114635,-0.0017931840967954115
1743758993.9124396,-0.0017939053130831696
1743758993.9134157,-0.0018015982868192539
1743758993.9143915,-0.0018191478831546962
1743758993.9153674,-0.0018167438288621699
1743758993.9163435,-0.0018065265981189328
1743758993.9173198,-0.0018061659899750537
1743758993.9182956,-0.0018133781528526327
1743758993.9192715,-0.00182816308675167
1743758993.9202476,-0.0018223933564496069
1743758993.9212236,-0.0017954679483733115
1743758993.9221995,-0.0017830870687668007
1743758993.9231753,-0.0018113347067039854
1743758993.9241517,-0.0018269610596054068
1743758993.9251277,-0.001814219571855017
1743758993.9261036,-0.0018106134904162276
1743758993.9270794,-0.0018060457872604277
1743758993.9280555,-0.0017995548406706063
1743758993.9290316,-0.0017913810560760168
1743758993.9300075,-0.0017889770017834904
1743758993.9309833,-0.0017929436913661587
1743758993.9319596,-0.0018008770705314958
1743758993.9329357,-0.0018134983555672592
1743758993.9339116,-0.0018128973419941276
1743758993.9348874,-0.0017973911918073326
1743758993.9358635,-0.0017899386235005008
1743758993.9368396,-0.001789698218071248
1743758993.9378157,-0.0017852507176300745
1743758993.9387915,-0.0017851305149154482
1743758993.9397676,-0.0017924628805076536
1743758993.9407437,-0.0018092912605553381
1743758993.9417195,-0.0018264802487469017
1743758993.9426954,-0.0018419863989336965
1743758993.9436715,-0.0018264802487469017
1743758993.9446478,-0.0018239559917397489
1743758993.9456236,-0.0018183064641523119
1743758993.9465995,-0.001819508491298575
1743758993.9475756,-0.0018103730849869748
1743758993.9485517,-0.0018064063954043065
1743758993.9495275,-0.0018038821383971537
1743758993.9505033,-0.0018074882198359434
1743758993.9514794,-0.0018066468008335593
1743758993.9524558,-0.0018078488279798224
1743758993.9534316,-0.0018110943012747329
1743758993.9544075,-0.0018196286940132013
1743758993.9553835,-0.0018178256532938065
1743758993.9563596,-0.0018136185582818855
1743758993.9573355,-0.0018213115320179698
1743758993.9583113,-0.001839822750070423
1743758993.9592876,-0.0018370580876340174
1743758993.9602637,-0.0018431884260799597
1743758993.9612396,-0.001841745993504444
1743758993.9622154,-0.0018268408568907805
1743758993.9631915,-0.0018157822071451595
1743758993.9641676,-0.0018213115320179698
1743758993.9651434,-0.001823715586310496
1743758993.9661195,-0.001825158018886012
1743758993.9670956,-0.0018239559917397489
1743758993.9680717,-0.0018112145039893592
1743758993.9690475,-0.0018024397058216378
1743758993.9700234,-0.0017931840967954115
1743758993.9709995,-0.0017846497040569429
1743758993.9719756,-0.0017905396370736324
1743758993.9729517,-0.0017955881510879378
1743758993.9739275,-0.0017973911918073326
1743758993.9749036,-0.0017901790289297536
1743758993.9758797,-0.0017826062579082954
1743758993.9768555,-0.001778278960181748
1743758993.9778314,-0.001783928487769185
1743758993.9788074,-0.001793785110368543
1743758993.9797838,-0.00179715078637808
1743758993.9807596,-0.0017979922053804641
1743758993.9817355,-0.0017978720026658379
1743758993.9827116,-0.0018037619356825274
1743758993.9836876,-0.0018139791664257643
1743758993.9846635,-0.0018213115320179698
1743758993.9856393,-0.001817224639720675
1743758993.9866157,-0.0018109740985601064
1743758993.9875917,-0.001808449841552954
1743758993.9885676,-0.0018064063954043065
1743758993.9895434,-0.0018050841655434169
1743758993.9905195,-0.0018009972732461223
1743758993.9914956,-0.0018011174759607485
1743758993.9924715,-0.00180628619268968
1743758993.9934475,-0.0018079690306944485
1743758993.9944236,-0.001804242746541033
1743758993.9953997,-0.001804242746541033
1743758993.9963756,-0.0018079690306944485
1743758993.9973514,-0.0017984730162389695
1743758993.9983275,-0.0017957083538025643
1743758993.9993036,-0.0017959487592318169
1743758994.0002797,-0.0018040023411117802
1743758994.0012555,-0.001800155854243738
1743758994.0022316,-0.001804242746541033
1743758994.0032077,-0.0018149407881427751
1743758994.0041835,-0.0018076084225505697
1743758994.0051594,-0.0018021993003923854
1743758994.0061355,-0.0018034013275386486
1743758994.0071118,-0.0018012376786753746
1743758994.0080876,-0.001802079097677759
1743758994.0090635,-0.0017961891646610694
1743758994.0100396,-0.001797511394521959
1743758994.0110157,-0.0018014780841046274
1743758994.0119915,-0.001793785110368543
1743758994.0129673,-0.0017931840967954115
1743758994.0139434,-0.0018018386922485062
1743758994.0149198,-0.001807368017121317
1743758994.0158956,-0.001804242746541033
1743758994.0168715,-0.0018007568678168695
1743758994.0178475,-0.0017972709890927063
1743758994.0188236,-0.0018011174759607485
1743758994.0197995,-0.0018049639628287906
1743758994.0207753,-0.0018098922741284697
1743758994.0217516,-0.0018095316659845907
1743758994.0227277,-0.0018094114632699644
1743758994.0237036,-0.0018095316659845907
1743758994.0246794,-0.0018150609908574014
1743758994.0256555,-0.0018127771392795011
1743758994.0266316,-0.0018060457872604277
1743758994.0276074,-0.0018041225438264065
1743758994.0285835,-0.0017969103809488275
1743758994.0295596,-0.0018009972732461223
1743758994.0305357,-0.0018066468008335593
1743758994.0315115,-0.0018103730849869748
1743758994.0324874,-0.0018107336931308538
1743758994.0334635,-0.001808089233409075
1743758994.0344396,-0.0017981124080950906
1743758994.0354156,-0.0017952275429440588
1743758994.0363915,-0.0017927032859369064
1743758994.0373676,-0.0018024397058216378
1743758994.0383437,-0.001813738760996512
1743758994.0393195,-0.0018219125455911013
1743758994.0402954,-0.0018116953148478645
1743758994.0412714,-0.0018002760569583642
1743758994.0422478,-0.0018064063954043065
1743758994.0432236,-0.0018118155175624907
1743758994.0441995,-0.0017984730162389695
1743758994.0451756,-0.0017915012587906432
1743758994.0461516,-0.001797511394521959
1743758994.0471275,-0.0017787597710402531
1743758994.0481033,-0.001769263756584774
1743758994.0490797,-0.0017820052443351638
1743758994.0500557,-0.0017765961221769795
1743758994.0510316,-0.0017669799050068742
1743758994.0520074,-0.0017722688244504322
1743758994.0529835,-0.0017765961221769795
1743758994.0539596,-0.001773711257025948
1743758994.0549355,-0.0017777981493232427
1743758994.0559115,-0.0017846497040569429
1743758994.0568876,-0.001789578015356622
1743758994.0578637,-0.0017946265293709272
1743758994.0588396,-0.0018082094361237012
1743758994.0598154,-0.0018173448424353015
1743758994.0607915,-0.0018125367338502488
1743758994.0617676,-0.0018055649764019222
1743758994.0627437,-0.001800155854243738
1743758994.0637195,-0.001813017544708754
1743758994.0646956,-0.0018029205166801433
1743758994.0656717,-0.0017898184207858746
1743758994.0666475,-0.0017799617981865167
1743758994.0676234,-0.001778278960181748
1743758994.0685995,-0.001786572947490964
1743758994.0695758,-0.0017910204479321377
1743758994.0705516,-0.0017798415954718902
1743758994.0715275,-0.001759767742129295
1743758994.0725036,-0.0017387322670696893
1743758994.0734797,-0.0017327221313383735
1743758994.0744555,-0.001738491861640437
1743758994.0754313,-0.0017565222688343844
1743758994.0764077,-0.001771427405448048
1743758994.0773838,-0.001747987876095916
1743758994.0783596,-0.0017520747683932106
1743758994.0793355,-0.001766499094148369
1743758994.0803115,-0.0017976315972365851
1743758994.0812876,-0.001789578015356622
1743758994.0822635,-0.0017868133529202166
1743758994.0832393,-0.0017844092986276903
1743758994.0842156,-0.0017814042307620322
1743758994.0851917,-0.001780923419903527
1743758994.0861676,-0.001782486055193669
1743758994.0871434,-0.0017752738923160901
1743758994.0881195,-0.0017734708515966954
1743758994.0890956,-0.0017695041620140268
1743758994.0900714,-0.0017642152425704687
1743758994.0910475,-0.0017695041620140268
1743758994.0920236,-0.0017805628117596483
1743758994.0929997,-0.0017894578126419957
1743758994.0939755,-0.001785370920344701
1743758994.0949514,-0.0017833274741960534
1743758994.0959275,-0.001768061729438511
1743758994.0969036,-0.0017725092298796848
1743758994.0978796,-0.0017762355140331007
1743758994.0988555,-0.0017709465945895426
1743758994.0998316,-0.0017741920678844532
1743758994.1008077,-0.0017836880823399323
1743758994.1017835,-0.0017841688931984378
1743758994.1027594,-0.0017874143664933482
1743758994.1037354,-0.0017835678796253062
1743758994.1047118,-0.0017852507176300745
1743758994.1056876,-0.0017907800425028852
1743758994.1066635,-0.0017836880823399323
1743758994.1076396,-0.0017833274741960534
1743758994.1086156,-0.0017916214615052693
1743758994.1095915,-0.0017887365963542377
1743758994.1105673,-0.0017844092986276903
1743758994.1115437,-0.0017763557167477268
1743758994.1125197,-0.001771788013591927
1743758994.1134956,-0.0017713072027334216
1743758994.1144714,-0.0017696243647286533
1743758994.1154475,-0.0017638546344265899
1743758994.1164236,-0.001760849566560932
1743758994.1173995,-0.001757123282407516
1743758994.1183755,-0.0017628930127095795
1743758994.1193516,-0.0017618111882779423
1743758994.1203277,-0.0017720284190211797
1743758994.1213036,-0.0017733506488820689
1743758994.1222794,-0.00177299004073819
1743758994.1232555,-0.001777437541179364
1743758994.1242316,-0.0017776779466086164
1743758994.1252077,-0.001785010312200822
1743758994.1261835,-0.0017866931502055902
1743758994.1271596,-0.001786933555634843
1743758994.1281357,-0.001780923419903527
1743758994.1291115,-0.001778278960181748
1743758994.1300874,-0.0017817648389059115
1743758994.1310635,-0.0017800820009011428
1743758994.1320398,-0.0017790001764695059
1743758994.1330156,-0.001789217407212743
1743758994.1339915,-0.001800516462387617
1743758994.1349676,-0.00179715078637808
1743758994.1359437,-0.001796309367375696
1743758994.1369195,-0.001791861866934522
1743758994.1378953,-0.0017878951773518533
1743758994.1388717,-0.0017942659212270484
1743758994.1398478,-0.0018024397058216378
1743758994.1408236,-0.001793424502224664
1743758994.1417994,-0.001763133418138832
1743758994.1427755,-0.0017387322670696893
1743758994.1437516,-0.0017359676046332841
1743758994.1447275,-0.0017341645639138894
1743758994.1457033,-0.0017341645639138894
1743758994.1466796,-0.0017380110507819316
1743758994.1476557,-0.0017398140915013264
1743758994.1486316,-0.0017708263918749165
1743758994.1496074,-0.0017646960534289742
1743758994.1505835,-0.0017615707828486898
1743758994.1515596,-0.0017508727412469474
1743758994.1525354,-0.0017509929439615739
1743758994.1535115,-0.001752916187395595
1743758994.1544876,-0.0017616909855633163
1743758994.1554637,-0.001757844498695274
1743758994.1564395,-0.0017590465258415372
1743758994.1574154,-0.0017477474706666634
1743758994.1583915,-0.0017500313222445633
1743758994.1593676,-0.001752194971107837
1743758994.1603436,-0.001755200038973495
1743758994.1613195,-0.0017533969982541002
1743758994.1622956,-0.001750632335817695
1743758994.1632717,-0.001752194971107837
1743758994.1642475,-0.0017455838218033894
1743758994.1652234,-0.0017758749058892217
1743758994.1661994,-0.0017755142977453429
1743758994.1671758,-0.0017622919991364479
1743758994.1681516,-0.0017640950398558426
1743758994.1691275,-0.0017660182832898634
1743758994.1701035,-0.001759407133985416
1743758994.1710796,-0.0017576040932660213
1743758994.1720555,-0.001754118214541858
1743758994.1730313,-0.0017523151738224633
1743758994.1740077,-0.0017524353765370898
1743758994.1749837,-0.0017518343629639582
1743758994.1759596,-0.001752194971107837
1743758994.1769354,-0.0017544788226857373
1743758994.1779115,-0.0017526757819663421
1743758994.1788876,-0.001756281863405132
1743758994.1798635,-0.0017570030796928897
1743758994.1808395,-0.001758926323126911
1743758994.1818156,-0.0017693839592994006
1743758994.1827917,-0.0017660182832898634
1743758994.1837676,-0.0017633738235680848
1743758994.1847434,-0.0017606091611316792
1743758994.1857195,-0.001759767742129295
1743758994.1866956,-0.001767340513150753
1743758994.1876717,-0.0017727496353089373
1743758994.1886475,-0.0017655374724313583
1743758994.1896236,-0.0017639748371412163
1743758994.1905997,-0.0017603687557024266
1743758994.1915755,-0.001756281863405132
1743758994.1925514,-0.0017610899719901847
1743758994.1935275,-0.0017662586887191162
1743758994.1945038,-0.001742698956652358
1743758994.1954796,-0.0017221442924512575
1743758994.1964555,-0.0017460646326618947
1743758994.1974316,-0.001759407133985416
1743758994.1984076,-0.001753637403683353
1743758994.1993835,-0.0017491899032421791
1743758994.2003593,-0.001747266659808158
1743758994.2013357,-0.0017475070652374107
1743758994.2023118,-0.0017401746996452052
1743758994.2032876,-0.0017422181457938527
1743758994.2042634,-0.001752194971107837
1743758994.2052395,-0.0017583253095537791
1743758994.2062156,-0.0017640950398558426
1743758994.2071915,-0.001762412201851074
1743758994.2081673,-0.0017616909855633163
1743758994.2091436,-0.0017590465258415372
1743758994.2101197,-0.001755079836258869
1743758994.2110956,-0.001755560647117374
1743758994.2120714,-0.0017573636878367687
1743758994.2130475,-0.0017638546344265899
1743758994.2140236,-0.001762412201851074
1743758994.2149994,-0.0017695041620140268
1743758994.2159755,-0.0017685425402970162
1743758994.2169516,-0.001766619296862995
1743758994.2179277,-0.001763614228997337
1743758994.2189035,-0.001760128350273174
1743758994.2198794,-0.0017537576063979792
1743758994.2208555,-0.0017508727412469474
1743758994.2218318,-0.0017576040932660213
1743758994.2228076,-0.0017582051068391529
1743758994.2237835,-0.0017633738235680848
1743758994.2247596,-0.001768782945726269
1743758994.2257357,-0.0017588061204122844
1743758994.2267115,-0.0017576040932660213
1743758994.2276874,-0.0017496707141006842
1743758994.2286634,-0.0017586859176976584
1743758994.2296398,-0.0017739516624552005
1743758994.2306156,-0.001774071865169827
1743758994.2315915,-0.0017762355140331007
1743758994.2325675,-0.001774071865169827
1743758994.2335436,-0.0017697445674432794
1743758994.2345195,-0.001766619296862995
1743758994.2354953,-0.001775995108603848
1743758994.2364717,-0.001758926323126911
1743758994.2374477,-0.0017515939575347055
1743758994.2384236,-0.001765056661572853
1743758994.2393994,-0.0017776779466086164
1743758994.2403755,-0.001764575850714348
1743758994.2413516,-0.001768061729438511
1743758994.2423275,-0.0017732304461674428
1743758994.2433035,-0.0017643354452850952
1743758994.2442796,-0.0017554404444027477
1743758994.2452557,-0.001759407133985416
1743758994.2462316,-0.0017674607158653793
1743758994.2472074,-0.0017679415267238846
1743758994.2481835,-0.0017524353765370898
1743758994.2491596,-0.0017442615919425
1743758994.2501357,-0.0017464252408057738
1743758994.2511115,-0.0017531565928248477
1743758994.2520876,-0.0017604889584170531
1743758994.2530637,-0.0017520747683932106
1743758994.2540395,-0.001749911119529937
1743758994.2550154,-0.0017577242959806475
1743758994.2559915,-0.0017651768642874795
1743758994.2569678,-0.0017596475394146688
1743758994.2579436,-0.0017554404444027477
1743758994.2589195,-0.001753637403683353
1743758994.2598956,-0.001753637403683353
1743758994.2608716,-0.0017515939575347055
1743758994.2618475,-0.0017566424715490109
1743758994.2628233,-0.001767220310436127
1743758994.2637997,-0.0017739516624552005
1743758994.2647758,-0.0017690233511555218
1743758994.2657516,-0.0017579647014099003
1743758994.2667274,-0.0017475070652374107
1743758994.2677035,-0.001745343416374137
1743758994.2686796,-0.0017518343629639582
1743758994.2696555,-0.0017508727412469474
1743758994.2706313,-0.0017493101059568054
1743758994.2716076,-0.001742698956652358
1743758994.2725837,-0.0017471464570935318
1743758994.2735596,-0.0017496707141006842
1743758994.2745354,-0.0017475070652374107
1743758994.2755115,-0.0017470262543789054
1743758994.2764876,-0.0017487090923836738
1743758994.2774634,-0.0017520747683932106
1743758994.2784395,-0.0017564020661197581
1743758994.2794156,-0.0017625324045657004
1743758994.2803917,-0.0017678213240092586
1743758994.2813675,-0.0017627728099949532
1743758994.2823434,-0.001770225378301785
1743758994.2833195,-0.0017711870000187953
1743758994.2842958,-0.0017685425402970162
1743758994.2852716,-0.001763494026282711
1743758994.2862475,-0.0017579647014099003
1743758994.2872236,-0.001756281863405132
1743758994.2881997,-0.0017519545656785845
1743758994.2891755,-0.0017547192281149896
1743758994.2901514,-0.0017564020661197581
1743758994.2911274,-0.0017464252408057738
1743758994.2921038,-0.0017430595647962368
1743758994.2930796,-0.001733323144911505
1743758994.2940555,-0.0017169755757223259
1743758994.2950315,-0.0017029118581110465
1743758994.2960076,-0.0017001471956746414
1743758994.2969835,-0.001688247126926636
1743758994.2979593,-0.0016846410454878465
1743758994.2989357,-0.0016916128029361727
1743758994.2999117,-0.0016990653712430045
1743758994.3008876,-0.0017045946961158152
1743758994.3018634,-0.0017178169947247102
1743758994.3028395,-0.0017287554417557052
1743758994.3038156,-0.0017312796987628578
1743758994.3047915,-0.0017316403069067366
1743758994.3057675,-0.0017369292263502945
1743758994.3067436,-0.0017471464570935318
1743758994.3077197,-0.001757123282407516
1743758994.3086956,-0.0017566424715490109
1743758994.3096714,-0.0017568828769782636
1743758994.3106475,-0.0017561616606905056
1743758994.3116236,-0.0017494303086714317
1743758994.3125997,-0.0017454636190887632
1743758994.3135755,-0.001738491861640437
1743758994.3145516,-0.0017375302399234261
1743758994.3155277,-0.0017495505113860582
1743758994.3165035,-0.0017588061204122844
1743758994.3174794,-0.0017598879448439215
1743758994.3184555,-0.0017683021348677637
1743758994.3194318,-0.0017769567303208584
1743758994.3204076,-0.0017922224750784009
1743758994.3213835,-0.0018021993003923854
1743758994.3223596,-0.0018071276116920644
1743758994.3233356,-0.0017989538270974748
1743758994.3243115,-0.0017919820696491483
1743758994.3252873,-0.0017735910543113216
1743758994.3262637,-0.001767340513150753
1743758994.3272398,-0.001767340513150753
1743758994.3282156,-0.0017658980805752374
1743758994.3291914,-0.0017616909855633163
1743758994.3301675,-0.0017618111882779423
1743758994.3311436,-0.0017632536208534583
1743758994.3321195,-0.0017621717964218214
1743758994.3330953,-0.0017576040932660213
1743758994.3340716,-0.0017574838905513952
1743758994.3350477,-0.001763494026282711
1743758994.3360236,-0.001764575850714348
1743758994.3369994,-0.0017722688244504322
1743758994.3379755,-0.00177755774389399
1743758994.3389516,-0.0017755142977453429
1743758994.3399274,-0.0017681819321531374
1743758994.3409035,-0.001767340513150753
1743758994.3418796,-0.0017667394995776215
1743758994.3428557,-0.001764575850714348
1743758994.3438315,-0.0017566424715490109
1743758994.3448074,-0.0017574838905513952
1743758994.3457835,-0.0017654172697167318
1743758994.3467598,-0.001771788013591927
1743758994.3477356,-0.001773711257025948
1743758994.3487115,-0.0017814042307620322
1743758994.3496876,-0.0017803224063303955
1743758994.3506637,-0.0017713072027334216
1743758994.3516395,-0.001771066797304169
1743758994.3526154,-0.0017693839592994006
1743758994.3535914,-0.0017615707828486898
1743758994.3545678,-0.0017558010525466265
1743758994.3555436,-0.0017549596335442424
1743758994.3565195,-0.0017531565928248477
1743758994.3574955,-0.001755560647117374
1743758994.3584716,-0.0017566424715490109
1743758994.3594475,-0.001764575850714348
1743758994.3604233,-0.0017556808498320005
1743758994.3613997,-0.0017475070652374107
1743758994.3623757,-0.0017330827394822525
1743758994.3633516,-0.0017293564553288367
1743758994.3643274,-0.0017316403069067366
1743758994.3653035,-0.001737049429064921
1743758994.3662796,-0.001740535307789084
1743758994.3672554,-0.0017399342942159524
1743758994.3682315,-0.0017418575376499737
1743758994.3692076,-0.001740535307789084
1743758994.3701837,-0.0017406555105037105
1743758994.3711596,-0.0017414969295060949
1743758994.3721354,-0.0017383716589258105
1743758994.3731115,-0.0017305584824751
1743758994.3740876,-0.001731039293333605
1743758994.3750637,-0.0017285150363264524
1743758994.3760395,-0.0017234665223121472
1743758994.3770156,-0.001713609899712789
1743758994.3779917,-0.001711686656278768
1743758994.3789675,-0.0017055563178328256
1743758994.3799434,-0.0017110856427056363
1743758994.3809195,-0.0017088017911277363
1743758994.3818958,-0.0017140907105712942
1743758994.3828716,-0.0017274332118948155
1743758994.3838475,-0.0017396938887867001
1743758994.3848236,-0.0017413767267914684
1743758994.3857996,-0.0017442615919425
1743758994.3867755,-0.001747987876095916
1743758994.3877513,-0.0017544788226857373
1743758994.3887277,-0.0017554404444027477
1743758994.3897038,-0.0017662586887191162
1743758994.3906796,-0.001775995108603848
1743758994.3916554,-0.0017746728787429585
1743758994.3926315,-0.001771788013591927
1743758994.3936076,-0.0017713072027334216
1743758994.3945835,-0.0017671001077215005
1743758994.3955593,-0.0017518343629639582
1743758994.3965356,-0.0017399342942159524
1743758994.3975117,-0.0017305584824751
1743758994.3984876,-0.0017104846291325047
1743758994.3994634,-0.0016931754382263147
1743758994.4004395,-0.0016745440174592357
1743758994.4014156,-0.0016727409767398407
1743758994.4023914,-0.0016711783414496988
1743758994.4033675,-0.001676587463607883
1743758994.4043436,-0.001678871315185783
1743758994.4053197,-0.001687165302494999
1743758994.4062955,-0.0016965411142358519
1743758994.4072714,-0.0017024310472525414
1743758994.4082475,-0.0017073593585522203
1743758994.4092238,-0.0017168553730076994
1743758994.4101996,-0.001733683753055384
1743758994.4111755,-0.0017537576063979792
1743758994.4121516,-0.0017796011900426375
1743758994.4131277,-0.001796790178234201
1743758994.4141035,-0.0018095316659845907
1743758994.4150794,-0.0018103730849869748
1743758994.4160554,-0.0017957083538025643
1743758994.4170318,-0.0017890972044981165
1743758994.4180076,-0.0017838082850545587
1743758994.4189835,-0.001767220310436127
1743758994.4199595,-0.0017489494978129266
1743758994.4209356,-0.0017425787539377315
1743758994.4219115,-0.0017394534833574473
1743758994.4228873,-0.0017532767955394737
1743758994.4238636,-0.0017721486217358057
1743758994.4248397,-0.0017866931502055902
1743758994.4258156,-0.00179715078637808
1743758994.4267914,-0.001794145718512422
1743758994.4277675,-0.001788135582781106
1743758994.4287436,-0.001785491123059327
1743758994.4297194,-0.0017806830144742743
1743758994.4306955,-0.0017827264606229219
1743758994.4316716,-0.001785851731203206
1743758994.4326477,-0.0017931840967954115
1743758994.4336236,-0.0017983528135243432
1743758994.4345994,-0.0018035215302532749
1743758994.4355755,-0.001805805381831175
1743758994.4365516,-0.0018064063954043065
1743758994.4375277,-0.0018102528822723488
1743758994.4385035,-0.0018097720714138432
1743758994.4394796,-0.0018023195031070117
1743758994.4404557,-0.0017946265293709272
1743758994.4414315,-0.001793304299510038
1743758994.4424074,-0.0017847699067715694
1743758994.4433835,-0.001771788013591927
1743758994.4443598,-0.0017568828769782636
1743758994.4453356,-0.0017463050380911475
1743758994.4463115,-0.0017369292263502945
1743758994.4472876,-0.0017418575376499737
1743758994.4482636,-0.0017565222688343844
1743758994.4492395,-0.001764575850714348
1743758994.4502153,-0.0017756345004599691
1743758994.4511917,-0.0017686627430116425
1743758994.4521677,-0.001768061729438511
1743758994.4531436,-0.0017648162561436003
1743758994.4541194,-0.0017537576063979792
1743758994.4550955,-0.001745343416374137
1743758994.4560716,-0.001741256524076842
1743758994.4570475,-0.0017396938887867001
1743758994.4580233,-0.001738972672498942
1743758994.4589996,-0.0017440211865132475
1743758994.4599757,-0.001745704024518016
1743758994.4609516,-0.0017388524697843158
1743758994.4619274,-0.0017352463883455263
1743758994.4629035,-0.0017360878073479104
1743758994.4638796,-0.0017392130779281948
1743758994.4648557,-0.0017424585512231053
1743758994.4658315,-0.0017481080788105422
1743758994.4668076,-0.001752555579251716
1743758994.4677837,-0.0017524353765370898
1743758994.4687595,-0.0017603687557024266
1743758994.4697354,-0.0017554404444027477
1743758994.4707115,-0.0017543586199711108
1743758994.4716878,-0.001747627267952037
1743758994.4726636,-0.0017429393620816108
1743758994.4736395,-0.0017369292263502945
1743758994.4746156,-0.0017320009150506158
1743758994.4755917,-0.0017359676046332841
1743758994.4765675,-0.0017402949023598317
1743758994.4775434,-0.0017375302399234261
1743758994.4785194,-0.0017375302399234261
1743758994.4794958,-0.0017414969295060949
1743758994.4804716,-0.001738491861640437
1743758994.4814475,-0.0017354867937747788
1743758994.4824235,-0.0017408959159329633
1743758994.4833996,-0.001745704024518016
1743758994.4843755,-0.0017564020661197581
1743758994.4853513,-0.0017612101747048108
1743758994.4863276,-0.001768782945726269
1743758994.4873037,-0.0017787597710402531
1743758994.4882796,-0.0017846497040569429
1743758994.4892554,-0.0017882557854957326
1743758994.4902315,-0.0017806830144742743
1743758994.4912076,-0.0017545990254003634
1743758994.4921834,-0.0017358474019186579
1743758994.4931595,-0.0017089219938423628
1743758994.4941356,-0.0016942572626579518
1743758994.4951117,-0.0016896895595021517
1743758994.4960876,-0.0016946178708018306
1743758994.4970634,-0.0017125280752811522
1743758994.4980395,-0.0017184180082978418
1743758994.4990156,-0.0017100038182739994
1743758994.4999917,-0.0017059169259767048
1743758994.5009675,-0.001704955304259694
1743758994.5019436,-0.00170868158841311
1743758994.5029197,-0.0017163745621491943
1743758994.5038955,-0.0017312796987628578
1743758994.5048714,-0.0017440211865132475
1743758994.5058475,-0.001745704024518016
1743758994.5068238,-0.0017517141602493317
1743758994.5077996,-0.0017545990254003634
1743758994.5087755,-0.0017602485529878004
1743758994.5097516,-0.001747987876095916
1743758994.5107276,-0.0017348857802016472
1743758994.5117035,-0.001729116049899584
1743758994.5126793,-0.0017287554417557052
1743758994.5136557,-0.0017416171322207211
1743758994.5146317,-0.0017509929439615739
1743758994.5156076,-0.0017660182832898634
1743758994.5165834,-0.0017830870687668007
1743758994.5175595,-0.0017901790289297536
1743758994.5185356,-0.0017936649076539168
1743758994.5195115,-0.0017947467320855535
1743758994.5204873,-0.001790659839788259
1743758994.5214636,-0.0017947467320855535
1743758994.5224397,-0.001797511394521959
1743758994.5234156,-0.0017829668660521746
1743758994.5243914,-0.0017685425402970162
1743758994.5253675,-0.0017579647014099003
1743758994.5263436,-0.0017485888896690476
1743758994.5273197,-0.0017515939575347055
1743758994.5282955,-0.0017660182832898634
1743758994.5292716,-0.0017627728099949532
1743758994.5302477,-0.0017691435538701478
1743758994.5312235,-0.0017750334868868376
1743758994.5321994,-0.0017863325420617113
1743758994.5331755,-0.0017924628805076536
1743758994.5341518,-0.0017943861239416747
1743758994.5351276,-0.0017927032859369064
1743758994.5361035,-0.0017924628805076536
1743758994.5370796,-0.0017835678796253062
1743758994.5380557,-0.0017727496353089373
1743758994.5390315,-0.0017638546344265899
1743758994.5400074,-0.0017439009837986212
1743758994.5409834,-0.0017279140227533208
1743758994.5419598,-0.00172010084630261
1743758994.5429356,-0.0017216634815927525
1743758994.5439115,-0.001723827130456026
1743758994.5448875,-0.0017305584824751
1743758994.5458636,-0.0017473868625227844
1743758994.5468395,-0.0017646960534289742
1743758994.5478153,-0.001777437541179364
1743758994.5487916,-0.001775995108603848
1743758994.5497677,-0.0017762355140331007
1743758994.5507436,-0.0017723890271650585
1743758994.5517194,-0.00177070618916029
1743758994.5526955,-0.001769263756584774
1743758994.5536716,-0.001763614228997337
1743758994.5546474,-0.0017573636878367687
1743758994.5556235,-0.0017609697692755582
1743758994.5565996,-0.0017554404444027477
1743758994.5575757,-0.0017554404444027477
1743758994.5585515,-0.0017568828769782636
1743758994.5595274,-0.0017644556479997214
1743758994.5605035,-0.001763614228997337
1743758994.5614796,-0.0017633738235680848
1743758994.5624557,-0.001762412201851074
1743758994.5634315,-0.0017655374724313583
1743758994.5644076,-0.0017648162561436003
1743758994.5653837,-0.0017638546344265899
1743758994.5663595,-0.001752555579251716
1743758994.5673354,-0.0017524353765370898
1743758994.5683115,-0.0017570030796928897
1743758994.5692878,-0.0017564020661197581
1743758994.5702636,-0.0017603687557024266
1743758994.5712395,-0.0017542384172564846
1743758994.5722156,-0.001747627267952037
1743758994.5731916,-0.0017244281440291576
1743758994.5741675,-0.0017006280065331467
1743758994.5751433,-0.00167995313961742
1743758994.5761197,-0.001689328951358273
1743758994.5770957,-0.0017025512499671677
1743758994.5780716,-0.0016981037495259939
1743758994.5790474,-0.0016923340192239308
1743758994.5800235,-0.001690530978504536
1743758994.5809996,-0.0016958198979480938
1743758994.5819755,-0.0016932956409409412
1743758994.5829513,-0.0016942572626579518
1743758994.5839276,-0.00169137239750692
1743758994.5849037,-0.001693536046370194
1743758994.5858796,-0.0016932956409409412
1743758994.5868554,-0.001701469425535531
1743758994.5878315,-0.0017074795612668468
1743758994.5888076,-0.0017157735485760627
1743758994.5897837,-0.001733202942196879
1743758994.5907595,-0.001733683753055384
1743758994.5917356,-0.0017376504426380526
1743758994.5927117,-0.0017602485529878004
1743758994.5936875,-0.0017606091611316792
1743758994.5946634,-0.0017654172697167318
1743758994.5956395,-0.0017642152425704687
1743758994.5966158,-0.0017590465258415372
1743758994.5975916,-0.001751353552105453
1743758994.5985675,-0.0017475070652374107
1743758994.5995436,-0.0017192594273002261
1743758994.6005197,-0.0017082007775546047
1743758994.6014955,-0.001717336183866205
1743758994.6024714,-0.001740054496930579
1743758994.6034474,-0.0017600081475585476
1743758994.6044238,-0.0017698647701579057
1743758994.6053996,-0.0017840486904838113
1743758994.6063755,-0.001786212339347085
1743758994.6073515,-0.0017875345692079745
1743758994.6083276,-0.0017818850416205375
1743758994.6093035,-0.0017820052443351638
1743758994.6102793,-0.0017799617981865167
1743758994.6112556,-0.0017790001764695059
1743758994.6122317,-0.0017947467320855535
1743758994.6132076,-0.0017940255157977956
1743758994.6141834,-0.0017899386235005008
1743758994.6151595,-0.0017765961221769795
1743758994.6161356,-0.0017689031484408953
1743758994.6171114,-0.001767340513150753
1743758994.6180875,-0.0017701051755871584
1743758994.6190636,-0.0017705859864456637
1743758994.6200397,-0.0017606091611316792
1743758994.6210155,-0.001752194971107837
1743758994.6219914,-0.0017465454435204003
1743758994.6229675,-0.0017509929439615739
1743758994.6239436,-0.0017556808498320005
1743758994.6249197,-0.0017705859864456637
1743758994.6258955,-0.0017732304461674428
1743758994.6268716,-0.0017791203791841324
1743758994.6278477,-0.0017689031484408953
1743758994.6288235,-0.0017655374724313583
1743758994.6297994,-0.0017618111882779423
1743758994.6307755,-0.0017545990254003634
1743758994.6317518,-0.0017439009837986212
1743758994.6327276,-0.0017381312534965577
1743758994.6337035,-0.0017228655087390156
1743758994.6346796,-0.0017112058454202626
1743758994.6356556,-0.0017186584137270945
1743758994.6366315,-0.001731039293333605
1743758994.6376073,-0.0017443817946571263
1743758994.6385837,-0.0017458242272326422
1743758994.6395597,-0.001747987876095916
1743758994.6405356,-0.0017497909168153107
1743758994.6415114,-0.0017464252408057738
1743758994.6424875,-0.0017565222688343844
1743758994.6434636,-0.0017638546344265899
1743758994.6444395,-0.001770345581016411
1743758994.6454153,-0.0017696243647286533
1743758994.6463916,-0.0017564020661197581
1743758994.6473677,-0.0017471464570935318
1743758994.6483436,-0.0017386120643550632
1743758994.6493194,-0.0017251493603169155
1743758994.6502955,-0.001704955304259694
1743758994.6512716,-0.0016865642889218673
1743758994.6522477,-0.0016697359088741828
1743758994.6532235,-0.0016567540156945408
1743758994.6541996,-0.001671659152308204
1743758994.6551757,-0.0017084411829838572
1743758994.6561515,-0.0017346453747723947
1743758994.6571274,-0.001749911119529937
1743758994.6581035,-0.001766619296862995
1743758994.6590798,-0.0017705859864456637
1743758994.6600556,-0.001766499094148369
1743758994.6610315,-0.0017662586887191162
1743758994.6620076,-0.0017602485529878004
1743758994.6629837,-0.0017649364588582267
1743758994.6639595,-0.0017668597022922478
1743758994.6649354,-0.0017713072027334216
1743758994.6659114,-0.0017723890271650585
1743758994.6668878,-0.0017643354452850952
1743758994.6678636,-0.00176613848600449
1743758994.6688395,-0.0017716678108773006
1743758994.6698155,-0.0017609697692755582
1743758994.6707916,-0.0017402949023598317
1743758994.6717675,-0.0017273130091801892
1743758994.6727433,-0.001721903887022005
1743758994.6737196,-0.0017287554417557052
1743758994.6746957,-0.0017460646326618947
1743758994.6756716,-0.001757123282407516
1743758994.6766474,-0.0017642152425704687
1743758994.6776235,-0.001760849566560932
1743758994.6785996,-0.0017561616606905056
1743758994.6795754,-0.0017574838905513952
1743758994.6805515,-0.001757844498695274
1743758994.6815276,-0.001771788013591927
1743758994.6825037,-0.0017768365276062323
1743758994.6834795,-0.0017780385547524955
1743758994.6844554,-0.0017859719339178325
1743758994.6854315,-0.0017995548406706063
1743758994.6864076,-0.001797511394521959
1743758994.6873837,-0.0017882557854957326
1743758994.6883595,-0.0017684223375823902
1743758994.6893356,-0.0017509929439615739
1743758994.6903117,-0.0017459444299472687
1743758994.6912875,-0.001744622200086379
1743758994.6922634,-0.0017429393620816108
1743758994.6932395,-0.0017410161186475895
1743758994.6942158,-0.0017582051068391529
1743758994.6951916,-0.0017852507176300745
1743758994.6961675,-0.0017890972044981165
1743758994.6971436,-0.0017847699067715694
1743758994.6981196,-0.0017864527447763376
1743758994.6990955,-0.0017856113257739535
1743758994.7000713,-0.0017637344317119636
1743758994.7010477,-0.001725750373890047
1743758994.7020237,-0.001710244223703252
1743758994.7029996,-0.001702310844537915
1743758994.7039754,-0.0016932956409409412
1743758994.7049515,-0.0016969017223797307
1743758994.7059276,-0.0017164947648638205
1743758994.7069035,-0.001747627267952037
1743758994.7078793,-0.0017727496353089373
1743758994.7088556,-0.0018096518686992172
1743758994.7098317,-0.0018351348441999966
1743758994.7108076,-0.0018429480206507071
1743758994.7117834,-0.0018574925491204916
1743758994.7127595,-0.001862901671278676
1743758994.7137356,-0.0018392217364972914
1743758994.7147117,-0.0018031609221093958
1743758994.7156875,-0.0017711870000187953
1743758994.7166636,-0.0017511131466762002
1743758994.7176397,-0.0017520747683932106
1743758994.7186155,-0.001767701121294632
1743758994.7195914,-0.0017741920678844532
1743758994.7205675,-0.0017790001764695059
1743758994.7215438,-0.0017898184207858746
1743758994.7225196,-0.001797511394521959
1743758994.7234955,-0.0017875345692079745
1743758994.7244716,-0.0017655374724313583
1743758994.7254477,-0.0017207018598757416
1743758994.7264235,-0.0017167351702930733
1743758994.7273993,-0.001718177602868589
1743758994.7283754,-0.0017054361151181993
1743758994.7293518,-0.001695098681660336
1743758994.7303276,-0.0016946178708018306
1743758994.7313035,-0.0017012290201062783
1743758994.7322795,-0.0017124078725665258
1743758994.7332556,-0.0017191392245855996
1743758994.7342315,-0.0017161341567199417
1743758994.7352073,-0.0017078401694107256
1743758994.7361836,-0.0017152927377175574
1743758994.7371597,-0.0017316403069067366
1743758994.7381356,-0.001759767742129295
1743758994.7391114,-0.0017693839592994006
1743758994.7400875,-0.001774552676028332
1743758994.7410636,-0.0017818850416205375
1743758994.7420394,-0.0017991942325267273
1743758994.7430155,-0.001817945856008433
1743758994.7439916,-0.0018269610596054068
1743758994.7449677,-0.0018173448424353015
1743758994.7459435,-0.0017973911918073326
1743758994.7469194,-0.0017698647701579057
1743758994.7478955,-0.0017273130091801892
1743758994.7488716,-0.0016925744246531831
1743758994.7498477,-0.0016979835468113678
1743758994.7508235,-0.0017100038182739994
1743758994.7517996,-0.00172238469788051
1743758994.7527757,-0.001725750373890047
1743758994.7537515,-0.0017246685494584104
1743758994.7547274,-0.0017186584137270945
1743758994.7557034,-0.0017168553730076994
1743758994.7566798,-0.001725269563031542
1743758994.7576556,-0.0017364484154917894
1743758994.7586315,-0.0017490697005275526
1743758994.7596076,-0.001768782945726269
1743758994.7605836,-0.001774432473313706
1743758994.7615595,-0.001776716324891606
1743758994.7625353,-0.0017726294325943112
1743758994.7635117,-0.0017644556479997214
1743758994.7644877,-0.0017773173384647376
1743758994.7654636,-0.0017728698380235638
1743758994.7664394,-0.001757844498695274
1743758994.7674155,-0.0017603687557024266
1743758994.7683916,-0.001752194971107837
1743758994.7693675,-0.0017473868625227844
1743758994.7703435,-0.0017595273367000425
1743758994.7713196,-0.0017646960534289742
1743758994.7722957,-0.0017618111882779423
1743758994.7732716,-0.0017695041620140268
1743758994.7742474,-0.0017753940950307164
1743758994.7752235,-0.0017628930127095795
1743758994.7761996,-0.0017334433476261313
1743758994.7771757,-0.001725750373890047
1743758994.7781515,-0.0017274332118948155
1743758994.7791276,-0.0017494303086714317
1743758994.7801037,-0.0017615707828486898
1743758994.7810795,-0.001786933555634843
1743758994.7820554,-0.0018023195031070117
1743758994.7830315,-0.0018107336931308538
1743758994.7840078,-0.0018090508551260856
1743758994.7849836,-0.0017900588262151273
1743758994.7859595,-0.0017755142977453429
1743758994.7869356,-0.001766499094148369
1743758994.7879117,-0.0017844092986276903
1743758994.7888875,-0.0017916214615052693
1743758994.7898633,-0.0017945063266563011
1743758994.7908394,-0.0017826062579082954
1743758994.7918158,-0.0017559212552612528
1743758994.7927916,-0.0017271928064655627
1743758994.7937675,-0.0017042340879719362
1743758994.7947435,-0.0016884875323558886
1743758994.7957196,-0.0017045946961158152
1743758994.7966955,-0.0017359676046332841
1743758994.7976713,-0.0017482282815251685
1743758994.7986476,-0.0017588061204122844
1743758994.7996237,-0.0017693839592994006
1743758994.8005996,-0.0017640950398558426
1743758994.8015754,-0.0017750334868868376
1743758994.8025515,-0.0017863325420617113
1743758994.8035276,-0.0017953477456586853
1743758994.8045034,-0.0017912608533613905
1743758994.8054795,-0.001786572947490964
1743758994.8064556,-0.0017835678796253062
1743758994.8074317,-0.0017799617981865167
1743758994.8084075,-0.001778278960181748
1743758994.8093834,-0.001778278960181748
1743758994.8103595,-0.0017790001764695059
1743758994.8113356,-0.0017790001764695059
1743758994.8123116,-0.0017715476081626741
1743758994.8132875,-0.0017654172697167318
1743758994.8142636,-0.0017566424715490109
1743758994.8152397,-0.0017560414579758793
1743758994.8162155,-0.0017591667285561635
1743758994.8171914,-0.0017894578126419957
1743758994.8181674,-0.0018125367338502488
1743758994.8191438,-0.00180857004426758
1743758994.8201196,-0.0017930638940807852
1743758994.8210955,-0.0017846497040569429
1743758994.8220716,-0.0017681819321531374
1743758994.8230476,-0.0017582051068391529
1743758994.8240235,-0.0017402949023598317
1743758994.8249993,-0.001728394833611826
1743758994.8259757,-0.0017146917241444258
1743758994.8269517,-0.0017068785476937152
1743758994.8279276,-0.0017008684119623992
1743758994.8289034,-0.0017186584137270945
1743758994.8298795,-0.001736328212777163
1743758994.8308556,-0.0017406555105037105
1743758994.8318315,-0.0017512333493908266
1743758994.8328075,-0.001755200038973495
1743758994.8337836,-0.0017651768642874795
1743758994.8347597,-0.0017723890271650585
1743758994.8357356,-0.0017880153800664798
1743758994.8367114,-0.001808930652411459
1743758994.8376875,-0.0018180660587230593
1743758994.8386636,-0.0018233549781666173
1743758994.8396397,-0.0018169842342914226
1743758994.8406155,-0.0018138589637111382
1743758994.8415916,-0.0018140993691403908
1743758994.8425677,-0.001811575112133238
1743758994.8435435,-0.0018098922741284697
1743758994.8445194,-0.0018108538958454803
1743758994.8454955,-0.0018197488967278278
1743758994.8464718,-0.001820229707586333
1743758994.8474476,-0.0017987134216682222
1743758994.8484235,-0.0018101326795577223
1743758994.8493996,-0.0018095316659845907
1743758994.8503757,-0.001811575112133238
1743758994.8513515,-0.0018132579501380067
1743758994.8523273,-0.0018205903157302121
1743758994.8533037,-0.0018102528822723488
1743758994.8542798,-0.0017972709890927063
1743758994.8552556,-0.0017972709890927063
1743758994.8562315,-0.001767220310436127
1743758994.8572075,-0.0017322413204798682
1743758994.8581836,-0.001723827130456026
1743758994.8591595,-0.0016997865875307625
1743758994.8601353,-0.001705676520547452
1743758994.8611116,-0.0017220240897366313
1743758994.8620877,-0.0017269524010363104
1743758994.8630636,-0.0017316403069067366
1743758994.8640394,-0.0017394534833574473
1743758994.8650155,-0.0017225049005951366
1743758994.8659916,-0.001725269563031542
1743758994.8669674,-0.001746906051664279
1743758994.8679435,-0.0017791203791841324
1743758994.8689196,-0.0018017184895338801
1743758994.8698957,-0.0018079690306944485
1743758994.8708715,-0.0018167438288621699
1743758994.8718474,-0.0018284034921809227
1743758994.8728235,-0.0018220327483057278
1743758994.8737996,-0.0018357358577731281
1743758994.8747756,-0.0018381399120656545
1743758994.8757515,-0.0018501601835282863
1743758994.8767276,-0.0018584541708375022
1743758994.8777037,-0.001855449102971844
1743758994.8786795,-0.0018513622106745495
1743758994.8796554,-0.0018597764006983916
1743758994.8806314,-0.0018680703880076075
1743758994.8816078,-0.0018600168061276444
1743758994.8825836,-0.0018412651826459389
1743758994.8835595,-0.0018110943012747329
1743758994.8845356,-0.0017828466633375481
1743758994.8855116,-0.0017713072027334216
1743758994.8864875,-0.0017586859176976584
1743758994.8874633,-0.001765056661572853
1743758994.8884397,-0.0017693839592994006
1743758994.8894157,-0.0017770769330354849
1743758994.8903916,-0.0017888567990688642
1743758994.8913674,-0.0017880153800664798
1743758994.8923435,-0.0017792405818987586
1743758994.8933196,-0.0017791203791841324
1743758994.8942955,-0.0017658980805752374
1743758994.8952715,-0.0017686627430116425
1743758994.8962476,-0.0017698647701579057
1743758994.8972237,-0.0017757547031745952
1743758994.8981996,-0.0017725092298796848
1743758994.8991754,-0.0017683021348677637
1743758994.9001515,-0.0017691435538701478
1743758994.9011276,-0.001771066797304169
1743758994.9021037,-0.0017886163936396114
1743758994.9030795,-0.0017989538270974748
1743758994.9040556,-0.001793785110368543
1743758994.9050317,-0.0017955881510879378
1743758994.9060075,-0.00179258308322228
1743758994.9069834,-0.0017732304461674428
1743758994.9079595,-0.0017912608533613905
1743758994.9089358,-0.0018066468008335593
1743758994.9099116,-0.0017942659212270484
1743758994.9108875,-0.001778639568325627
1743758994.9118636,-0.0017798415954718902
1743758994.9128397,-0.0017549596335442424
1743758994.9138155,-0.001740535307789084
1743758994.9147913,-0.0017371696317795473
1743758994.9157677,-0.001734765577487021
1743758994.9167438,-0.001754118214541858
1743758994.9177196,-0.001765777877860611
1743758994.9186954,-0.001767220310436127
1743758994.9196715,-0.0017686627430116425
1743758994.9206476,-0.0017798415954718902
1743758994.9216235,-0.0017951073402294327
1743758994.9225993,-0.001807007408977438
1743758994.9235756,-0.0018140993691403908
1743758994.9245517,-0.001814219571855017
1743758994.9255276,-0.001811575112133238
1743758994.9265034,-0.0017996750433852326
1743758994.9274795,-0.0017821254470497903
1743758994.9284556,-0.0017595273367000425
1743758994.9294314,-0.001747627267952037
1743758994.9304075,-0.0017584455122684056
1743758994.9313836,-0.0017382514562111842
1743758994.9323597,-0.0017356069964894053
1743758994.9333355,-0.0017304382797604734
1743758994.9343114,-0.0017270726037509367
1743758994.9352875,-0.0017542384172564846
1743758994.9362636,-0.001811575112133238
1743758994.9372396,-0.001839822750070423
1743758994.9382155,-0.0018616996441324129
1743758994.9391916,-0.0018693926178684971
1743758994.9401677,-0.001872758293878034
1743758994.9411435,-0.0018513622106745495
1743758994.9421194,-0.0018147003827135224
1743758994.9430954,-0.0017765961221769795
1743758994.9440718,-0.0017646960534289742
1743758994.9450476,-0.0017654172697167318
1743758994.9460235,-0.001763494026282711
1743758994.9469995,-0.001777437541179364
1743758994.9479756,-0.0017889770017834904
1743758994.9489515,-0.0017851305149154482
1743758994.9499273,-0.0017485888896690476
1743758994.9509037,-0.0017155331431468101
1743758994.9518797,-0.001707118953122968
1743758994.9528556,-0.0017167351702930733
1743758994.9538314,-0.0017281544281825736
1743758994.9548075,-0.0017630132154242055
1743758994.9557836,-0.0017874143664933482
1743758994.9567595,-0.0018011174759607485
1743758994.9577355,-0.0018065265981189328
1743758994.9587116,-0.0018145801799988959
1743758994.9596877,-0.0018066468008335593
1743758994.9606636,-0.0017910204479321377
1743758994.9616394,-0.0017586859176976584
1743758994.9626155,-0.0017364484154917894
1743758994.9635916,-0.0017315201041921103
1743758994.9645677,-0.001697743141382115
1743758994.9655435,-0.0016556721912629037
1743758994.9665196,-0.0016328336754839034
1743758994.9674957,-0.0016431711089417668
1743758994.9684715,-0.0016747844228884882
1743758994.9694474,-0.0017240675358852788
1743758994.9704235,-0.0017527959846809686
1743758994.9713998,-0.0017612101747048108
1743758994.9723756,-0.0017888567990688642
1743758994.9733515,-0.0018168640315767961
1743758994.9743276,-0.0018165034234329171
1743758994.9753036,-0.0018239559917397489
1743758994.9762795,-0.001818667072296191
1743758994.9772553,-0.001807368017121317
1743758994.9782317,-0.0017864527447763376
1743758994.9792078,-0.0017477474706666634
1743758994.9801836,-0.0017267119956070576
1743758994.9811594,-0.0017459444299472687
1743758994.9821355,-0.0017638546344265899
1743758994.9831116,-0.001775995108603848
1743758994.9840875,-0.001781644636191285
1743758994.9850633,-0.001785491123059327
1743758994.9860396,-0.001781644636191285
1743758994.9870157,-0.0017649364588582267
1743758994.9879916,-0.0017416171322207211
1743758994.9889674,-0.001737049429064921
1743758994.9899435,-0.0017406555105037105
1743758994.9909196,-0.0017368090236356685
1743758994.9918954,-0.0017365686182064157
1743758994.9928715,-0.001731760509621363
1743758994.9938476,-0.0017289958471849575
1743758994.9948237,-0.0017352463883455263
1743758994.9957995,-0.0017423383485084792
1743758994.9967754,-0.0017638546344265899
1743758994.9977515,-0.001782486055193669
1743758994.9987278,-0.001802079097677759
1743758994.9997036,-0.0018208307211594647
1743758995.0006795,-0.001830326735614944
1743758995.0016556,-0.0018316489654758331
1743758995.0026317,-0.0018185468695815646
1743758995.0036075,-0.0017970305836634535
1743758995.0045834,-0.0017780385547524955
1743758995.0055594,-0.0017722688244504322
1743758995.0065358,-0.0017785193656110008
1743758995.0075116,-0.0017607293638463057
1743758995.0084875,-0.0017735910543113216
1743758995.0094635,-0.0017776779466086164
1743758995.0104396,-0.0017622919991364479
1743758995.0114155,-0.0017579647014099003
1743758995.0123913,-0.001752916187395595
1743758995.0133677,-0.0017388524697843158
1743758995.0143437,-0.0017321211177652419
1743758995.0153196,-0.001734044361199263
1743758995.0162954,-0.0017537576063979792
1743758995.0172715,-0.0017762355140331007
1743758995.0182476,-0.001779721392757264
1743758995.0192235,-0.0017674607158653793
1743758995.0201995,-0.001759767742129295
1743758995.0211756,-0.0017466656462350263
1743758995.0221517,-0.0017463050380911475
1743758995.0231276,-0.0017424585512231053
1743758995.0241034,-0.001740415105074458
1743758995.0250795,-0.0017545990254003634
1743758995.0260556,-0.001753637403683353
1743758995.0270317,-0.0017696243647286533
1743758995.0280075,-0.0017833274741960534
1743758995.0289836,-0.0017769567303208584
1743758995.0299597,-0.0017761153113184745
1743758995.0309355,-0.0017586859176976584
1743758995.0319114,-0.0017396938887867001
1743758995.0328875,-0.0017255099684607945
1743758995.0338638,-0.0017387322670696893
1743758995.0348396,-0.0017471464570935318
1743758995.0358155,-0.001765777877860611
1743758995.0367916,-0.0017668597022922478
1743758995.0377676,-0.0017591667285561635
1743758995.0387435,-0.001740054496930579
1743758995.0397193,-0.0017182978055832153
1743758995.0406957,-0.0017088017911277363
1743758995.0416718,-0.0017125280752811522
1743758995.0426476,-0.0017330827394822525
1743758995.0436234,-0.001753637403683353
1743758995.0445995,-0.0017741920678844532
1743758995.0455756,-0.0017866931502055902
1743758995.0465515,-0.0017928234886515325
1743758995.0475273,-0.0017880153800664798
1743758995.0485036,-0.0017792405818987586
1743758995.0494797,-0.0017711870000187953
1743758995.0504556,-0.0017660182832898634
1743758995.0514314,-0.0017668597022922478
1743758995.0524075,-0.0017711870000187953
1743758995.0533836,-0.0017765961221769795
1743758995.0543594,-0.0017868133529202166
1743758995.0553355,-0.0017997952460998591
1743758995.0563116,-0.0018092912605553381
1743758995.0572877,-0.001805805381831175
1743758995.0582635,-0.0018060457872604277
1743758995.0592394,-0.0018215519374472225
1743758995.0602155,-0.0018233549781666173
1743758995.0611918,-0.0018208307211594647
1743758995.0621676,-0.001818667072296191
1743758995.0631435,-0.0018263600460322752
1743758995.0641196,-0.001846674304804123
1743758995.0650957,-0.0018452318722286072
1743758995.0660715,-0.001830326735614944
1743758995.0670474,-0.0018055649764019222
1743758995.0680234,-0.0017833274741960534
1743758995.0689998,-0.0017958285565171904
1743758995.0699756,-0.0018106134904162276
1743758995.0709515,-0.0018071276116920644
1743758995.0719275,-0.0017935447049392903
1743758995.0729036,-0.0017994346379559799
1743758995.0738795,-0.0017966699755195747
1743758995.0748553,-0.0017811638253327799
1743758995.0758317,-0.0017579647014099003
1743758995.0768077,-0.001733683753055384
1743758995.0777836,-0.0017067583449790888
1743758995.0787594,-0.0017156533458614362
1743758995.0797355,-0.0017459444299472687
1743758995.0807116,-0.0017734708515966954
1743758995.0816875,-0.0017999154488144854
1743758995.0826635,-0.0018219125455911013
1743758995.0836396,-0.0018437894396530913
1743758995.0846157,-0.001865906739144334
1743758995.0855916,-0.0018768451861753289
1743758995.0865674,-0.0018856199843430498
1743758995.0875435,-0.0018612188332739075
1743758995.0885196,-0.001818667072296191
1743758995.0894957,-0.0017814042307620322
1743758995.0904715,-0.001752916187395595
1743758995.0914476,-0.0017279140227533208
1743758995.0924237,-0.0017082007775546047
1743758995.0933995,-0.001704474493401189
1743758995.0943754,-0.0017006280065331467
1743758995.0953515,-0.0017031522635402993
1743758995.0963278,-0.0017204614544464893
1743758995.0973036,-0.0017305584824751
1743758995.0982795,-0.0017418575376499737
1743758995.0992556,-0.0017543586199711108
1743758995.1002316,-0.0017720284190211797
1743758995.1012075,-0.0017803224063303955
1743758995.1021833,-0.0017866931502055902
1743758995.1031597,-0.0017838082850545587
1743758995.1041358,-0.0017699849728725322
1743758995.1051116,-0.0017685425402970162
1743758995.1060874,-0.0017570030796928897
1743758995.1070635,-0.0017418575376499737
1743758995.1080396,-0.0017386120643550632
1743758995.1090155,-0.0017459444299472687
1743758995.1099913,-0.001746184835376521
1743758995.1109676,-0.0017508727412469474
1743758995.1119437,-0.0017520747683932106
1743758995.1129196,-0.0017564020661197581
1743758995.1138954,-0.001752555579251716
1743758995.1148715,-0.0017713072027334216
1743758995.1158476,-0.0017787597710402531
1743758995.1168234,-0.0017785193656110008
1743758995.1177995,-0.0017779183520378692
1743758995.1187756,-0.00177070618916029
1743758995.1197517,-0.0017739516624552005
1743758995.1207275,-0.0017883759882103588
1743758995.1217034,-0.0017979922053804641
1743758995.1226795,-0.001805805381831175
1743758995.1236558,-0.0018031609221093958
1743758995.1246316,-0.0017978720026658379
1743758995.1256075,-0.0018036417329679014
1743758995.1265836,-0.0017983528135243432
1743758995.1275597,-0.0017882557854957326
1743758995.1285355,-0.0017572434851221425
1743758995.1295114,-0.001734765577487021
1743758995.1304874,-0.0017285150363264524
1743758995.1314638,-0.001751473754820079
1743758995.1324396,-0.001766499094148369
1743758995.1334155,-0.0017957083538025643
1743758995.1343915,-0.0018131377474233804
1743758995.1353676,-0.0018518430215330546
1743758995.1363435,-0.0018752825508851865
1743758995.1373193,-0.0018912695119304868
1743758995.1382957,-0.00188790383592095
1743758995.1392717,-0.0018522036296769334
1743758995.1402476,-0.001785370920344701
1743758995.1412234,-0.001751473754820079
1743758995.1421995,-0.0017590465258415372
1743758995.1431756,-0.0017660182832898634
1743758995.1441514,-0.0017609697692755582
1743758995.1451275,-0.0017380110507819316
1743758995.1461036,-0.0017380110507819316
1743758995.1470797,-0.0017380110507819316
1743758995.1480556,-0.0017573636878367687
1743758995.1490314,-0.0017648162561436003
1743758995.1500075,-0.0017508727412469474
1743758995.1509836,-0.0017511131466762002
1743758995.1519597,-0.0017564020661197581
1743758995.1529355,-0.0017679415267238846
1743758995.1539116,-0.001781644636191285
1743758995.1548877,-0.0017806830144742743
1743758995.1558635,-0.0017752738923160901
1743758995.1568394,-0.001760128350273174
1743758995.1578155,-0.0017668597022922478
1743758995.1587918,-0.0017764759194623533
1743758995.1597676,-0.0017713072027334216
1743758995.1607435,-0.001747266659808158
1743758995.1617196,-0.0017309190906189787
1743758995.1626956,-0.0017437807810839947
1743758995.1636715,-0.0017749132841722113
1743758995.1646473,-0.0018014780841046274
1743758995.1656237,-0.0018120559229917435
1743758995.1665998,-0.001826239843317649
1743758995.1675756,-0.0018189074777254434
1743758995.1685514,-0.001824677208027507
1743758995.1695275,-0.0018061659899750537
1743758995.1705036,-0.0017921022723637748
1743758995.1714795,-0.0017808032171889006
1743758995.1724553,-0.0017584455122684056
1743758995.1734316,-0.001736328212777163
1743758995.1744077,-0.001699185573957631
1743758995.1753836,-0.0016853622617756042
1743758995.1763594,-0.0017131290888542838
1743758995.1773355,-0.001755560647117374
1743758995.1783116,-0.0017711870000187953
1743758995.1792874,-0.001777437541179364
1743758995.1802635,-0.0017734708515966954
1743758995.1812396,-0.0017720284190211797
1743758995.1822157,-0.0017674607158653793
1743758995.1831915,-0.001746184835376521
1743758995.1841674,-0.0017432999702254896
1743758995.1851435,-0.0017305584824751
1743758995.1861198,-0.0017424585512231053
1743758995.1870956,-0.0017613303774194373
1743758995.1880715,-0.0017683021348677637
1743758995.1890476,-0.001771427405448048
1743758995.1900237,-0.0017609697692755582
1743758995.1909995,-0.001755079836258869
1743758995.1919754,-0.0017460646326618947
1743758995.1929514,-0.0017491899032421791
1743758995.1939278,-0.0017632536208534583
1743758995.1949036,-0.0017734708515966954
1743758995.1958795,-0.001789217407212743
1743758995.1968555,-0.0017981124080950906
1743758995.1978316,-0.0018134983555672592
1743758995.1988075,-0.001834533830626865
1743758995.1997833,-0.0018249176134567593
1743758995.2007596,-0.001789698218071248
1743758995.2017357,-0.0017768365276062323
1743758995.2027116,-0.0017993144352413538
1743758995.2036874,-0.001796429570090322
1743758995.2046635,-0.0017886163936396114
1743758995.2056396,-0.001781284028047406
1743758995.2066154,-0.0017755142977453429
1743758995.2075915,-0.0017799617981865167
1743758995.2085676,-0.0017768365276062323
1743758995.2095437,-0.0017663788914337427
1743758995.2105196,-0.0017500313222445633
1743758995.2114954,-0.0017381312534965577
1743758995.2124715,-0.001709162399271615
1743758995.2134476,-0.001688367329641262
1743758995.2144237,-0.0017084411829838572
1743758995.2153995,-0.0017134896969981626
1743758995.2163756,-0.0017225049005951366
1743758995.2173517,-0.0017334433476261313
1743758995.2183275,-0.0017204614544464893
1743758995.2193034,-0.0016931754382263147
1743758995.2202795,-0.001666009624720767
1743758995.2212558,-0.001661441921564967
1743758995.2222316,-0.0016777894907541464
1743758995.2232075,-0.0016963007088065991
1743758995.2241836,-0.0017088017911277363
1743758995.2251596,-0.001703512871684178
1743758995.2261355,-0.0016930552355116887
1743758995.2271113,-0.001680433950475925
1743758995.2280877,-0.001691252194792294
1743758995.2290637,-0.0017414969295060949
1743758995.2300396,-0.0017750334868868376
1743758995.2310154,-0.001805444773687296
1743758995.2319915,-0.0018269610596054068
1743758995.2329676,-0.0018223933564496069
1743758995.2339435,-0.001815301396286654
1743758995.2349193,-0.001811454909418612
1743758995.2358956,-0.0018036417329679014
1743758995.2368717,-0.0017874143664933482
1743758995.2378476,-0.0017864527447763376
1743758995.2388234,-0.0017976315972365851
1743758995.2397995,-0.0017915012587906432
1743758995.2407756,-0.001786572947490964
1743758995.2417517,-0.001793424502224664
1743758995.2427275,-0.0017940255157977956
1743758995.2437036,-0.0018102528822723488
1743758995.2446797,-0.0018437894396530913
1743758995.2456555,-0.0018505207916721651
1743758995.2466314,-0.0018567713328327337
1743758995.2476075,-0.0018358560604877542
1743758995.2485838,-0.001810012476843096
1743758995.2495596,-0.0017991942325267273
1743758995.2505355,-0.0017826062579082954
1743758995.2515116,-0.0017826062579082954
1743758995.2524877,-0.001764575850714348
1743758995.2534635,-0.0017979922053804641
1743758995.2544394,-0.0018173448424353015
1743758995.2554154,-0.0018109740985601064
1743758995.2563918,-0.001799074029812101
1743758995.2573676,-0.0017773173384647376
1743758995.2583435,-0.0017241877385999048
1743758995.2593195,-0.0016734621930275988
1743758995.2602956,-0.0016592782727016932
1743758995.2612715,-0.0016982239522406203
1743758995.2622473,-0.001720822062590368
1743758995.2632236,-0.0017191392245855996
1743758995.2641997,-0.0017305584824751
1743758995.2651756,-0.0017420979430792264
1743758995.2661514,-0.00176613848600449
1743758995.2671275,-0.0017845295013423166
1743758995.2681036,-0.0017829668660521746
1743758995.2690794,-0.0017870537583494694
1743758995.2700555,-0.001789698218071248
1743758995.2710316,-0.0017787597710402531
1743758995.2720077,-0.0017713072027334216
1743758995.2729836,-0.0017596475394146688
1743758995.2739594,-0.0017323615231944946
1743758995.2749355,-0.001715893751290689
1743758995.2759116,-0.0017229857114536417
1743758995.2768877,-0.0017365686182064157
1743758995.2778635,-0.0017637344317119636
1743758995.2788396,-0.001774552676028332
1743758995.2798157,-0.0017693839592994006
1743758995.2807915,-0.0017893376099273692
1743758995.2817674,-0.0017902992316443796
1743758995.2827435,-0.0017877749746372273
1743758995.2837198,-0.00179258308322228
1743758995.2846956,-0.001793785110368543
1743758995.2856715,-0.0017976315972365851
1743758995.2866476,-0.0018011174759607485
1743758995.2876236,-0.0018023195031070117
1743758995.2885995,-0.0018046033546849118
1743758995.2895753,-0.0018233549781666173
1743758995.2905517,-0.0018544874812548337
1743758995.2915277,-0.0018654259282858286
1743758995.2925036,-0.001849799575384407
1743758995.2934794,-0.0018180660587230593
1743758995.2944555,-0.0018018386922485062
1743758995.2954316,-0.0018094114632699644
1743758995.2964075,-0.0017780385547524955
1743758995.2973833,-0.0017341645639138894
1743758995.2983596,-0.0017342847666285157
1743758995.2993357,-0.0017470262543789054
1743758995.3003116,-0.0017882557854957326
1743758995.3012874,-0.001787654771922601
1743758995.3022635,-0.0017443817946571263
1743758995.3032396,-0.0017320009150506158
1743758995.3042157,-0.0017124078725665258
1743758995.3051915,-0.0016971421278089835
1743758995.3061676,-0.0016942572626579518
1743758995.3071437,-0.0016990653712430045
1743758995.3081195,-0.0017048351015450677
1743758995.3090954,-0.0017155331431468101
1743758995.3100715,-0.001726110982033926
1743758995.3110478,-0.0017334433476261313
1743758995.3120236,-0.001733683753055384
1743758995.3129995,-0.001736328212777163
1743758995.3139756,-0.0017334433476261313
1743758995.3149517,-0.001746184835376521
1743758995.3159275,-0.0017643354452850952
1743758995.3169034,-0.0017902992316443796
1743758995.3178794,-0.0018082094361237012
1743758995.3188558,-0.0018243165998836277
1743758995.3198316,-0.0018469147102333756
1743758995.3208075,-0.0018567713328327337
1743758995.3217835,-0.0018641036984249392
1743758995.3227596,-0.0018677097798637287
1743758995.3237355,-0.0018687916042953656
1743758995.3247113,-0.0018684309961514865
1743758995.3256876,-0.0018531652513939442
1743758995.3266637,-0.0018415055880751912
1743758995.3276396,-0.0018238357890251226
1743758995.3286154,-0.0017503919303884423
1743758995.3295915,-0.001716614967578447
1743758995.3305676,-0.001748348484239795
1743758995.3315434,-0.0017360878073479104
1743758995.3325195,-0.0017067583449790888
1743758995.3334956,-0.0017606091611316792
1743758995.3344717,-0.0018159024098597855
1743758995.3354475,-0.0018333318034806018
1743758995.3364234,-0.0018031609221093958
1743758995.3373995,-0.0017627728099949532
1743758995.3383756,-0.0017939053130831696
1743758995.3393517,-0.0018392217364972914
1743758995.3403275,-0.0018215519374472225
1743758995.3413036,-0.0017857315284885798
1743758995.3422797,-0.0017965497728049484
1743758995.3432555,-0.0018128973419941276
1743758995.3442314,-0.0018165034234329171
1743758995.3452075,-0.0017777981493232427
1743758995.3461838,-0.0017225049005951366
1743758995.3471596,-0.0017097634128447469
1743758995.3481355,-0.0017112058454202626
1743758995.3491116,-0.0017246685494584104
1743758995.3500876,-0.0017138503051420415
1743758995.3510635,-0.001707960372125352
1743758995.3520393,-0.0017292362526142102
1743758995.3530157,-0.0017298372661873418
1743758995.3539917,-0.0017323615231944946
1743758995.3549676,-0.0017440211865132475
1743758995.3559434,-0.0017371696317795473
1743758995.3569195,-0.0017256301711754208
1743758995.3578956,-0.0017090421965569888
1743758995.3588715,-0.0017281544281825736
1743758995.3598473,-0.0017580849041245268
1743758995.3608236,-0.001779721392757264
1743758995.3617997,-0.001779721392757264
1743758995.3627756,-0.001802079097677759
1743758995.3637514,-0.0018358560604877542
1743758995.3647275,-0.0018541268731109546
1743758995.3657036,-0.0018347742360561175
1743758995.3666797,-0.0018067670035481853
1743758995.3676555,-0.0017982326108097167
1743758995.3686316,-0.0017995548406706063
1743758995.3696077,-0.0018169842342914226
1743758995.3705835,-0.0018037619356825274
1743758995.3715594,-0.001763494026282711
1743758995.3725355,-0.0017693839592994006
1743758995.3735118,-0.0017753940950307164
1743758995.3744876,-0.0017820052443351638
1743758995.3754635,-0.0017826062579082954
1743758995.3764396,-0.0017893376099273692
1743758995.3774157,-0.0017917416642198956
1743758995.3783915,-0.0017531565928248477
1743758995.3793674,-0.0017374100372088
1743758995.3803434,-0.001724908954887663
1743758995.3813198,-0.0017273130091801892
1743758995.3822956,-0.001752194971107837
1743758995.3832715,-0.0017604889584170531
1743758995.3842475,-0.0017613303774194373
1743758995.3852236,-0.001753637403683353
1743758995.3861995,-0.001750632335817695
1743758995.3871753,-0.0017668597022922478
1743758995.3881516,-0.0017750334868868376
1743758995.3891277,-0.001780923419903527
1743758995.3901036,-0.0017928234886515325
1743758995.3910794,-0.001808089233409075
1743758995.3920555,-0.0017989538270974748
1743758995.3930316,-0.001788135582781106
1743758995.3940074,-0.0017958285565171904
1743758995.3949835,-0.0017953477456586853
1743758995.3959596,-0.0018050841655434169
1743758995.3969357,-0.0018167438288621699
1743758995.3979115,-0.0018067670035481853
1743758995.3988874,-0.001808449841552954
1743758995.3998635,-0.0018229943700227385
1743758995.4008396,-0.00183501464148537
1743758995.4018157,-0.0018261196406030224
1743758995.4027915,-0.001786212339347085
1743758995.4037676,-0.0017465454435204003
1743758995.4047437,-0.0017309190906189787
1743758995.4057195,-0.0017399342942159524
1743758995.4066954,-0.0017495505113860582
1743758995.4076715,-0.0017545990254003634
1743758995.4086478,-0.0017520747683932106
1743758995.4096236,-0.001750632335817695
1743758995.4105995,-0.0017577242959806475
1743758995.4115756,-0.0017780385547524955
1743758995.4125516,-0.001782486055193669
1743758995.4135275,-0.0017761153113184745
1743758995.4145033,-0.0017756345004599691
1743758995.4154797,-0.0017654172697167318
1743758995.4164557,-0.0017722688244504322
1743758995.4174316,-0.0017794809873280112
1743758995.4184074,-0.0017821254470497903
1743758995.4193835,-0.0017954679483733115
1743758995.4203596,-0.001805444773687296
1743758995.4213355,-0.0018118155175624907
1743758995.4223113,-0.001825158018886012
1743758995.4232876,-0.0018499197780990336
1743758995.4242637,-0.0018744411318828025
1743758995.4252396,-0.0018856199843430498
1743758995.4262154,-0.0018898270793549713
1743758995.4271915,-0.0018854997816284238
1743758995.4281676,-0.0018722774830195286
1743758995.4291437,-0.0018159024098597855
1743758995.4301195,-0.0017564020661197581
1743758995.4310956,-0.0017596475394146688
1743758995.4320717,-0.0017708263918749165
1743758995.4330475,-0.0017497909168153107
1743758995.4340234,-0.0017447424028010055
1743758995.4349995,-0.0017757547031745952
1743758995.4359758,-0.0017946265293709272
