1743758790.6180115,-0.0009565732029962384
1743758790.6189876,-0.0009565732029962384
1743758790.6199634,-0.0009565732029962384
1743758790.6209393,-0.0009565732029962384
1743758790.6219153,-0.0009565732029962384
1743758790.6228914,-0.0009565732029962384
1743758790.6238673,-0.0009565732029962384
1743758790.6248434,-0.0009565732029962384
1743758790.6258194,-0.0009225558347569905
1743758790.6267955,-0.0009179881316011903
1743758790.6277714,-0.000923517456474001
1743758790.6287472,-0.0009207527940375956
1743758790.6297233,-0.000912939617586885
1743758790.6306996,-0.0009164254963110481
1743758790.6316755,-0.0009283255650590537
1743758790.6326513,-0.0009306094166369538
1743758790.6336274,-0.0009334942817879853
1743758790.6346035,-0.0009396246202339276
1743758790.6355793,-0.0009427498908142119
1743758790.6365552,-0.0009468367831115067
1743758790.6375313,-0.0009491206346894067
1743758790.6385076,-0.0009663096228809702
1743758790.6394835,-0.000990109760376981
1743758790.6404593,-0.001010904830007334
1743758790.6414354,-0.0010091017892879394
1743758790.6424115,-0.0009956390852497918
1743758790.6433873,-0.0009737621911878018
1743758790.6443632,-0.00095489036499147
1743758790.6453395,-0.0009372205659414013
1743758790.6463156,-0.000917507320742685
1743758790.6472914,-0.0008983950891171005
1743758790.6482673,-0.0008867354257983477
1743758790.6492434,-0.0008780808303452528
1743758790.6502194,-0.0008807252900670318
1743758790.6511953,-0.0008759171814819791
1743758790.6521714,-0.000894067791390553
1743758790.6531475,-0.0009077709008579534
1743758790.6541235,-0.0009256811053372747
1743758790.6550994,-0.0009230366456154958
1743758790.6560752,-0.000915223469164785
1743758790.6570513,-0.0009218346184692326
1743758790.6580274,-0.0009117375904406218
1743758790.6590035,-0.0009178679288865641
1743758790.6599793,-0.0009080113062872059
1743758790.6609554,-0.0008844515742204476
1743758790.6619315,-0.0008696666403214104
1743758790.6629074,-0.0008642575181632262
1743758790.6638832,-0.0008730323163309474
1743758790.6648593,-0.0009135406311600166
1743758790.6658356,-0.0009239982673325062
1743758790.6668115,-0.0009268831324835379
1743758790.6677873,-0.0009244790781910116
1743758790.6687634,-0.0009285659704883063
1743758790.6697395,-0.0009420286745264539
1743758790.6707153,-0.0009590974600033911
1743758790.6716912,-0.0009666702310248491
1743758790.6726675,-0.0009689540826027491
1743758790.6736436,-0.0009743632047609334
1743758790.6746194,-0.0009742430020463072
1743758790.6755953,-0.0009684732717442439
1743758790.6765714,-0.0009625833387275543
1743758790.6775475,-0.0009364993496536433
1743758790.6785233,-0.0008956304266806952
1743758790.6794991,-0.0008608918421536893
1743758790.6804755,-0.0008245906223365413
1743758790.6814516,-0.000868344410460521
1743758790.6824274,-0.0008931061696735425
1743758790.6834033,-0.0009082517117164586
1743758790.6843793,-0.0009207527940375956
1743758790.6853554,-0.0009282053623444274
1743758790.6863315,-0.0009420286745264539
1743758790.6873074,-0.0009441923233897277
1743758790.6882834,-0.0009486398238309014
1743758790.6892595,-0.0009476782021138908
1743758790.6902354,-0.0009434711071019697
1743758790.6912112,-0.0009356579306512591
1743758790.6921873,-0.0009185891451743219
1743758790.6931636,-0.0009018809678412637
1743758790.6941395,-0.0008997173189779899
1743758790.6951153,-0.0009112567795821165
1743758790.6960914,-0.0009176275234573113
1743758790.6970675,-0.0009161850908817956
1743758790.6980433,-0.0009155840773086639
1743758790.6990192,-0.0009259215107665273
1743758790.6999953,-0.0009301286057784485
1743758790.7009716,-0.0009356579306512591
1743758790.7019475,-0.0009375811740852802
1743758790.7029233,-0.0009358983360805117
1743758790.7038994,-0.0009422690799557066
1743758790.7048755,-0.0009490004319747804
1743758790.7058513,-0.0009456347559652434
1743758790.7068272,-0.0009458751613944961
1743758790.7078035,-0.0009443125261043539
1743758790.7087796,-0.0009496014455479119
1743758790.7097554,-0.0009456347559652434
1743758790.7107313,-0.0009373407686560274
1743758790.7117074,-0.000931450835639338
1743758790.7126834,-0.0009259215107665273
1743758790.7136593,-0.0009336144845026117
1743758790.7146354,-0.0009431104989580907
1743758790.7156115,-0.0009419084718118275
1743758790.7165875,-0.0009396246202339276
1743758790.7175634,-0.0009344559035049959
1743758790.7185392,-0.0009274841460566695
1743758790.7195153,-0.0009290467813468116
1743758790.7204914,-0.0009253204971933957
1743758790.7214675,-0.000923156848330122
1743758790.7224433,-0.0009247194836202641
1743758790.7234194,-0.0009241184700471325
1743758790.7243955,-0.0009403458365216856
1743758790.7253714,-0.0009433509043873435
1743758790.7263472,-0.000941307458238696
1743758790.7273233,-0.000939384214804675
1743758790.7282996,-0.0009300084030638222
1743758790.7292755,-0.0009255609026226484
1743758790.7302513,-0.0009291669840614378
1743758790.7312274,-0.0009340952953611169
1743758790.7322035,-0.0009346963089342486
1743758790.7331793,-0.00092844576777368
1743758790.7341552,-0.0009247194836202641
1743758790.7351315,-0.0009325326600709748
1743758790.7361076,-0.0009373407686560274
1743758790.7370834,-0.0009476782021138908
1743758790.7380593,-0.0009535681351305805
1743758790.7390354,-0.0009526065134135698
1743758790.7400115,-0.0009467165803968804
1743758790.7409873,-0.0009433509043873435
1743758790.7419631,-0.000939384214804675
1743758790.7429395,-0.0009244790781910116
1743758790.7439156,-0.000920151780464464
1743758790.7448914,-0.0009259215107665273
1743758790.7458673,-0.0009289265786321853
1743758790.7468433,-0.0009320518492124696
1743758790.7478194,-0.0009378215795145329
1743758790.7487955,-0.0009312104302100854
1743758790.7497714,-0.0009282053623444274
1743758790.7507474,-0.0009225558347569905
1743758790.7517235,-0.000923156848330122
1743758790.7526994,-0.0009203921858937167
1743758790.7536752,-0.0009145022528770271
1743758790.7546513,-0.0009190699560328272
1743758790.7556276,-0.0009171467125988061
1743758790.7566035,-0.0009145022528770271
1743758790.7575793,-0.0009226760374716167
1743758790.7585554,-0.0009265225243396589
1743758790.7595315,-0.0009298882003491958
1743758790.7605073,-0.0009260417134811537
1743758790.7614832,-0.0009163052935964219
1743758790.7624593,-0.0009135406311600166
1743758790.7634356,-0.0009092133334334691
1743758790.7644114,-0.0009038042112752848
1743758790.7653873,-0.0008992365081194847
1743758790.7663634,-0.0008920243452419056
1743758790.7673395,-0.0008921445479565319
1743758790.7683153,-0.0008988758999756058
1743758790.7692912,-0.0009046456302776691
1743758790.7702675,-0.0009021213732705165
1743758790.7712436,-0.0009022415759851426
1743758790.7722194,-0.0009035638058460322
1743758790.7731953,-0.0008976738728293426
1743758790.7741714,-0.0008941879941051794
1743758790.7751474,-0.0009060880628531848
1743758790.7761233,-0.000920151780464464
1743758790.7770994,-0.0009297679976345694
1743758790.7780755,-0.0009247194836202641
1743758790.7790515,-0.0009282053623444274
1743758790.7800274,-0.0009309700247808326
1743758790.7810032,-0.0009289265786321853
1743758790.7819793,-0.0009255609026226484
1743758790.7829554,-0.0009285659704883063
1743758790.7839315,-0.000939023606660796
1743758790.7849073,-0.0009463559722530014
1743758790.7858834,-0.0009432307016727171
1743758790.7868595,-0.0009447933369628593
1743758790.7878354,-0.0009470771885407592
1743758790.7888112,-0.0009524863106989437
1743758790.7897873,-0.000949240837404033
1743758790.7907636,-0.0009480388102577698
1743758790.7917395,-0.0009487600265455278
1743758790.7927153,-0.0009449135396774857
1743758790.7936914,-0.0009410670528094434
1743758790.7946675,-0.0009414276609533223
1743758790.7956433,-0.0009372205659414013
1743758790.7966192,-0.0009368599577975222
1743758790.7975955,-0.000933734687217238
1743758790.7985716,-0.0009368599577975222
1743758790.7995474,-0.0009343357007903695
1743758790.8005233,-0.0009312104302100854
1743758790.8014994,-0.0009330134709294801
1743758790.8024755,-0.0009354175252220064
1743758790.8034513,-0.0009377013767999065
1743758790.8044271,-0.0009431104989580907
1743758790.8054035,-0.0009343357007903695
1743758790.8063796,-0.0009350569170781275
1743758790.8073554,-0.0009374609713706538
1743758790.8083313,-0.000928806375917559
1743758790.8093073,-0.0009274841460566695
1743758790.8102834,-0.0009265225243396589
1743758790.8112595,-0.000920512388608343
1743758790.8122354,-0.0009265225243396589
1743758790.8132114,-0.0009196709696059588
1743758790.8141875,-0.000923517456474001
1743758790.8151634,-0.0009331336736441064
1743758790.8161392,-0.0009297679976345694
1743758790.8171153,-0.0009318114437832169
1743758790.8180916,-0.0009342154980757433
1743758790.8190675,-0.000941668066382575
1743758790.8200433,-0.0009500822564064171
1743758790.8210194,-0.0009487600265455278
1743758790.8219955,-0.0009527267161281962
1743758790.8229713,-0.0009502024591210435
1743758790.8239472,-0.0009470771885407592
1743758790.8249233,-0.0009455145532506172
1743758790.8258996,-0.0009538085405598331
1743758790.8268754,-0.0009550105677060963
1743758790.8278513,-0.0009542893514183384
1743758790.8288274,-0.0009542893514183384
1743758790.8298035,-0.0009570540138547438
1743758790.8307793,-0.0009576550274278754
1743758790.8317552,-0.000956453000281612
1743758790.8327315,-0.0009476782021138908
1743758790.8337076,-0.0009391438093754224
1743758790.8346834,-0.0009493610401186594
1743758790.8356593,-0.0009595782708618964
1743758790.8366354,-0.0009510438781234278
1743758790.8376114,-0.0009446731342482329
1743758790.8385873,-0.0009427498908142119
1743758790.8395634,-0.0009422690799557066
1743758790.8405395,-0.0009443125261043539
1743758790.8415155,-0.0009481590129723961
1743758790.8424914,-0.0009520054998404383
1743758790.8434672,-0.0009588570545741385
1743758790.8444433,-0.0009750844210486913
1743758790.8454194,-0.0009819359757823915
1743758790.8463955,-0.000978690502487481
1743758790.8473713,-0.000978329894343602
1743758790.8483474,-0.0009705167178928912
1743758790.8493235,-0.0009665500283102228
1743758790.8502994,-0.0009613813115812911
1743758790.8512752,-0.0009514044862673067
1743758790.8522513,-0.0009447933369628593
1743758790.8532276,-0.000939744822948554
1743758790.8542035,-0.0009331336736441064
1743758790.8551793,-0.0009289265786321853
1743758790.8561554,-0.0009327730655002276
1743758790.8571315,-0.0009292871867760642
1743758790.8581073,-0.0009278447542005484
1743758790.8590832,-0.0009258013080519009
1743758790.8600595,-0.0009262821189104063
1743758790.8610356,-0.0009296477949199432
1743758790.8620114,-0.0009325326600709748
1743758790.8629873,-0.0009414276609533223
1743758790.8639634,-0.000948880229260154
1743758790.8649395,-0.0009457549586798698
1743758790.8659153,-0.0009358983360805117
1743758790.8668911,-0.0009358983360805117
1743758790.8678675,-0.0009256811053372747
1743758790.8688436,-0.0009232770510447483
1743758790.8698194,-0.0009241184700471325
1743758790.8707952,-0.0009232770510447483
1743758790.8717713,-0.0009354175252220064
1743758790.8727474,-0.0009345761062196223
1743758790.8737235,-0.0009160648881671693
1743758790.8746994,-0.0009096941442919745
1743758790.8756754,-0.0009058476574239322
1743758790.8766515,-0.0009123386040137535
1743758790.8776274,-0.0009106557660089849
1743758790.8786032,-0.0009319316464978432
1743758790.8795793,-0.0009527267161281962
1743758790.8805556,-0.0009669106364541017
1743758790.8815315,-0.0009740025966170546
1743758790.8825073,-0.0009849410436480494
1743758790.8834834,-0.0009958794906790443
1743758790.8844595,-0.0009899895576623548
1743758790.8854353,-0.0009826571920701493
1743758790.8864112,-0.0009794117187752389
1743758790.8873873,-0.0009732813803292966
1743758790.8883636,-0.0009661894201663438
1743758790.8893394,-0.0009666702310248491
1743758790.8903153,-0.000962823744156807
1743758790.8912914,-0.0009578954328571279
1743758790.8922675,-0.0009540489459890857
1743758790.8932433,-0.000956813608425491
1743758790.8942192,-0.000960179284435028
1743758790.8951955,-0.0009577752301425015
1743758790.8961716,-0.0009605398925789069
1743758790.8971474,-0.000957534824713249
1743758790.8981233,-0.0009566934057108647
1743758790.8990993,-0.0009498418509771646
1743758790.9000754,-0.0009508034726941751
1743758790.9010513,-0.0009476782021138908
1743758790.9020274,-0.0009494812428332856
1743758790.9030035,-0.0009449135396774857
1743758790.9039795,-0.0009445529315336066
1743758790.9049554,-0.0009423892826703329
1743758790.9059312,-0.0009441923233897277
1743758790.9069073,-0.0009535681351305805
1743758790.9078834,-0.0009563327975669858
1743758790.9088595,-0.0009560923921377332
1743758790.9098353,-0.0009502024591210435
1743758790.9108114,-0.0009349367143635011
1743758790.9117875,-0.0009358983360805117
1743758790.9127634,-0.0009440721206751013
1743758790.9137392,-0.0009508034726941751
1743758790.9147153,-0.0009452741478213645
1743758790.9156916,-0.0009544095541329647
1743758790.9166675,-0.0009599388790057753
1743758790.9176433,-0.0009578954328571279
1743758790.9186194,-0.0009679924608857385
1743758790.9195955,-0.0009773682726265914
1743758790.9205713,-0.0009950380716766602
1743758790.9215472,-0.0010113856408658394
1743758790.9225235,-0.0010056159105637761
1743758790.9234996,-0.0009887875305160916
1743758790.9244754,-0.000985542057221181
1743758790.9254513,-0.0009752046237633177
1743758790.9264274,-0.0009689540826027491
1743758790.9274035,-0.0009697955016051335
1743758790.9283793,-0.0009664298255955965
1743758790.9293554,-0.0009673914473126069
1743758790.9303315,-0.0009792915160606126
1743758790.9313076,-0.0009740025966170546
1743758790.9322834,-0.0009798925296337442
1743758790.9332592,-0.000982536989355523
1743758790.9342353,-0.0009702763124636387
1743758790.9352114,-0.000962463136012928
1743758790.9361875,-0.0009615015142959175
1743758790.9371634,-0.0009599388790057753
1743758790.9381394,-0.0009605398925789069
1743758790.9391155,-0.0009699157043197596
1743758790.9400914,-0.0009742430020463072
1743758790.9410672,-0.0009685934744588701
1743758790.9420433,-0.0009633045550153123
1743758790.9430196,-0.0009505630672649226
1743758790.9439955,-0.0009461155668237488
1743758790.9449713,-0.0009446731342482329
1743758790.9459474,-0.0009455145532506172
1743758790.9469235,-0.0009521257025550646
1743758790.9478993,-0.000957534824713249
1743758790.9488752,-0.0009618621224397964
1743758790.9498513,-0.0009714783396099018
1743758790.9508276,-0.0009849410436480494
1743758790.9518034,-0.0009903501658062336
1743758790.9527793,-0.000986984489796697
1743758790.9537554,-0.0009867440843674441
1743758790.9547315,-0.0009866238816528179
1743758790.9557073,-0.0010015290182664813
1743758790.9566832,-0.0010131886815852342
1743758790.9576595,-0.0010000865856909654
1743758790.9586356,-0.0009880663142283338
1743758790.9596114,-0.0009838592192164127
1743758790.9605873,-0.0009853016517919284
1743758790.9615633,-0.0009803733404922493
1743758790.9625394,-0.0009822965839262705
1743758790.9635153,-0.0009863834762235653
1743758790.9644914,-0.0009804935432068758
1743758790.9654675,-0.0009890279359453442
1743758790.9664435,-0.0009914319902378707
1743758790.9674194,-0.0009907107739501127
1743758790.9683952,-0.000993475436386518
1743758790.9693713,-0.0009884269223722126
1743758790.9703474,-0.0009850612463626759
1743758790.9713235,-0.0009767672590534598
1743758790.9722993,-0.0009679924608857385
1743758790.9732754,-0.0009705167178928912
1743758790.9742515,-0.0009683530690296176
1743758790.9752274,-0.0009669106364541017
1743758790.9762032,-0.0009665500283102228
1743758790.9771793,-0.0009689540826027491
1743758790.9781556,-0.0009728005694707914
1743758790.9791315,-0.0009762864481949545
1743758790.9801073,-0.0009742430020463072
1743758790.9810834,-0.0009766470563388335
1743758790.9820595,-0.0009803733404922493
1743758790.9830353,-0.000978329894343602
1743758790.9840112,-0.0009865036789381916
1743758790.9849875,-0.0009854218545065547
1743758790.9859636,-0.0009833784083579072
1743758790.9869394,-0.00098361881378716
1743758790.9879153,-0.0009838592192164127
1743758790.9888914,-0.0009755652319071967
1743758790.9898674,-0.000973401583043923
1743758790.9908433,-0.0009696752988905071
1743758790.9918194,-0.0009613813115812911
1743758790.9927955,-0.0009657086093078386
1743758790.9937716,-0.0009627035414421807
1743758790.9947474,-0.0009676318527418597
1743758790.9957232,-0.0009736419884731756
1743758790.9966993,-0.0009814551649238862
1743758790.9976754,-0.0009762864481949545
1743758790.9986515,-0.0009764066509095809
1743758790.9996274,-0.0009856622599358075
1743758791.0006034,-0.0009902299630916076
1743758791.0015795,-0.000996841112396055
1743758791.0025554,-0.001003332058985876
1743758791.0035312,-0.0010046542888467655
1743758791.0045073,-0.000997682531398439
1743758791.0054836,-0.0010060967214222814
1743758791.0064595,-0.0010015290182664813
1743758791.0074353,-0.0010022502345542392
1743758791.0084114,-0.0009986441531154497
1743758791.0093875,-0.0009950380716766602
1743758791.0103633,-0.0009902299630916076
1743758791.0113392,-0.0009914319902378707
1743758791.0123153,-0.0009872248952259494
1743758791.0132916,-0.0009853016517919284
1743758791.0142674,-0.0009868642870820706
1743758791.0152433,-0.0009872248952259494
1743758791.0162194,-0.000989628949518476
1743758791.0171955,-0.0009848208409334231
1743758791.0181713,-0.0009880663142283338
1743758791.0191472,-0.000989749152233102
1743758791.0201235,-0.0009959996933936708
1743758791.0210996,-0.0009990047612593287
1743758791.0220754,-0.001004774491561392
1743758791.0230513,-0.00100777955942705
1743758791.0240273,-0.001010904830007334
1743758791.0250034,-0.0010136694924437395
1743758791.0259793,-0.0010151119250192554
1743758791.0269554,-0.0010184776010287921
1743758791.0279315,-0.0010118664517243447
1743758791.0289075,-0.0010069381404246656
1743758791.0298834,-0.0010024906399834917
1743758791.0308592,-0.0009946774635327812
1743758791.0318353,-0.0009928744228133864
1743758791.0328114,-0.000993114828242639
1743758791.0337875,-0.0009932350309572655
1743758791.0347633,-0.0009929946255280127
1743758791.0357394,-0.0009890279359453442
1743758791.0367155,-0.0009837390165017862
1743758791.0376914,-0.0009725601640415386
1743758791.0386672,-0.000980613745921502
1743758791.0396433,-0.000987825908799081
1743758791.0406196,-0.0009844602327895443
1743758791.0415955,-0.0009917925983817496
1743758791.0425713,-0.0009920330038110023
1743758791.0435474,-0.0009905905712354864
1743758791.0445235,-0.0009947976662474075
1743758791.0454993,-0.0009963603015375497
1743758791.0464752,-0.000989268341374597
1743758791.0474515,-0.0009809743540653809
1743758791.0484276,-0.0009832582056432811
1743758791.0494034,-0.0009914319902378707
1743758791.0503793,-0.0009826571920701493
1743758791.0513554,-0.0009812147594946336
1743758791.0523314,-0.0009771278671973388
1743758791.0533073,-0.0009800127323483705
1743758791.0542834,-0.0009721995558976598
1743758791.0552595,-0.0009735217857585492
1743758791.0562356,-0.0009848208409334231
1743758791.0572114,-0.001008260370285555
1743758791.0581872,-0.0010135492897291132
1743758791.0591633,-0.0010024906399834917
1743758791.0601394,-0.001002130031839613
1743758791.0611155,-0.0010053755051345236
1743758791.0620914,-0.0010064573295661603
1743758791.0630674,-0.0010042936807028867
1743758791.0640435,-0.0010048946942760183
1743758791.0650194,-0.0010016492209811076
1743758791.0659952,-0.0010023704372688657
1743758791.0669713,-0.0009994855721178338
1743758791.0679476,-0.0009943168553889022
1743758791.0689235,-0.0009845804355041704
1743758791.0698993,-0.0009777288807704704
1743758791.0708754,-0.000964386379446949
1743758791.0718515,-0.0009511640808380541
1743758791.0728273,-0.000949962053691791
1743758791.0738032,-0.000947317593970012
1743758791.0747795,-0.0009521257025550646
1743758791.0757556,-0.0009622227305836753
1743758791.0767314,-0.0009717187450391545
1743758791.0777073,-0.0009790511106313599
1743758791.0786834,-0.0009792915160606126
1743758791.0796595,-0.0009861430707943126
1743758791.0806353,-0.00099732192325456
1743758791.0816112,-0.001008981586573313
1743758791.0825875,-0.0010139098978729922
1743758791.0835636,-0.001014991722304629
1743758791.0845394,-0.0010130684788706079
1743758791.0855153,-0.0010068179377100393
1743758791.0864913,-0.001001048207407976
1743758791.0874674,-0.0009905905712354864
1743758791.0884433,-0.0009762864481949545
1743758791.0894194,-0.000964746987590828
1743758791.0903955,-0.0009563327975669858
1743758791.0913715,-0.0009600590817204017
1743758791.0923474,-0.0009673914473126069
1743758791.0933232,-0.0009725601640415386
1743758791.0942993,-0.0009747238129048124
1743758791.0952754,-0.0009796521242044914
1743758791.0962515,-0.000980253137777623
1743758791.0972273,-0.000986984489796697
1743758791.0982034,-0.0009857824626504337
1743758791.0991795,-0.0009873450979405757
1743758791.1001554,-0.0009910713820939917
1743758791.1011312,-0.000993114828242639
1743758791.1021073,-0.0009885471250868389
1743758791.1030836,-0.0009837390165017862
1743758791.1040595,-0.0009706369206075176
1743758791.1050353,-0.000975324826477944
1743758791.1060114,-0.000967752055456486
1743758791.1069875,-0.0009699157043197596
1743758791.1079633,-0.0009687136771734965
1743758791.1089392,-0.0009711177314660229
1743758791.1099155,-0.0009743632047609334
1743758791.1108916,-0.0009746036101901861
1743758791.1118674,-0.0009672712445979808
1743758791.1128433,-0.0009702763124636387
1743758791.1138194,-0.000973401583043923
1743758791.1147954,-0.000975324826477944
1743758791.1157713,-0.0009798925296337442
1743758791.1167474,-0.0009832582056432811
1743758791.1177235,-0.0009884269223722126
1743758791.1186996,-0.0009913117875232442
1743758791.1196754,-0.0009921532065256286
1743758791.1206512,-0.0009950380716766602
1743758791.1216273,-0.0009992451666885813
1743758791.1226034,-0.001000687599264097
1743758791.1235795,-0.0010009280046933498
1743758791.1245553,-0.0010024906399834917
1743758791.1255314,-0.0009990047612593287
1743758791.1265075,-0.0010092219920025656
1743758791.1274834,-0.001008981586573313
1743758791.1284592,-0.0010035724644151289
1743758791.1294353,-0.0010022502345542392
1743758791.1304116,-0.0009980431395423181
1743758791.1313875,-0.0009903501658062336
1743758791.1323633,-0.0009812147594946336
1743758791.1333394,-0.0009767672590534598
1743758791.1343155,-0.0009765268536242071
1743758791.1352913,-0.0009659490147370912
1743758791.1362672,-0.0009457549586798698
1743758791.1372435,-0.000946235769538375
1743758791.1382196,-0.0009534479324159541
1743758791.1391954,-0.0009596984735765227
1743758791.1401713,-0.000967752055456486
1743758791.1411474,-0.0009623429332983016
1743758791.1421235,-0.0009676318527418597
1743758791.1430993,-0.0009820561784970178
1743758791.1440752,-0.0009857824626504337
1743758791.1450515,-0.0009944370581035286
1743758791.1460276,-0.000995759287964418
1743758791.1470034,-0.0009874653006552022
1743758791.1479793,-0.00098590266536506
1743758791.1489553,-0.000987825908799081
1743758791.1499314,-0.0009842198273602915
1743758791.1509073,-0.0009941966526742759
1743758791.1518834,-0.0009947976662474075
1743758791.1528594,-0.0009937158418157706
1743758791.1538355,-0.000987825908799081
1743758791.1548114,-0.0009731611776146702
1743758791.1557872,-0.0009690742853173755
1743758791.1567633,-0.0009756854346218229
1743758791.1577394,-0.0009797723269191177
1743758791.1587155,-0.0009794117187752389
1743758791.1596913,-0.0009847006382187969
1743758791.1606674,-0.0009800127323483705
1743758791.1616435,-0.0009840996246456653
1743758791.1626194,-0.0009997259775470866
1743758791.1635952,-0.001002130031839613
1743758791.1645713,-0.0010026108426981182
1743758791.1655476,-0.001008620978429434
1743758791.1665235,-0.0010062169241369077
1743758791.1674993,-0.001002130031839613
1743758791.1684754,-0.001001769423695734
1743758791.1694515,-0.0010012886128372286
1743758791.1704273,-0.000993475436386518
1743758791.1714032,-0.0009910713820939917
1743758791.1723795,-0.0009939562472450233
1743758791.1733556,-0.000992634017384134
1743758791.1743314,-0.0009784500970582283
1743758791.1753073,-0.0009732813803292966
1743758791.1762834,-0.0009712379341806492
1743758791.1772594,-0.0009746036101901861
1743758791.1782353,-0.0009791713133459861
1743758791.1792114,-0.0009839794219310388
1743758791.1801875,-0.000980253137777623
1743758791.1811635,-0.0009693146907466281
1743758791.1821394,-0.0009652277984493334
1743758791.1831152,-0.0009711177314660229
1743758791.1840913,-0.0009773682726265914
1743758791.1850674,-0.0009830178002140284
1743758791.1860435,-0.00099732192325456
1743758791.1870193,-0.0010101836137195762
1743758791.1879954,-0.00101006341100495
1743758791.1889715,-0.0010060967214222814
1743758791.1899474,-0.001008620978429434
1743758791.1909232,-0.0010087411811440605
1743758791.1918993,-0.0009952784771059128
1743758791.1928756,-0.000986984489796697
1743758791.1938515,-0.0009847006382187969
1743758791.1948273,-0.0009843400300749178
1743758791.1958034,-0.0009818157730677652
1743758791.1967795,-0.0009910713820939917
1743758791.1977553,-0.0009946774635327812
1743758791.1987312,-0.0010035724644151289
1743758791.1997075,-0.0010059765187076552
1743758791.2006836,-0.0010127078707267288
1743758791.2016594,-0.0010105442218634553
1743758791.2026353,-0.0010141503033022448
1743758791.2036114,-0.0010177563847410343
1743758791.2045875,-0.0010260503720502503
1743758791.2055633,-0.0010197998308896815
1743758791.2065392,-0.001016554357594771
1743758791.2075155,-0.0010235261150430975
1743758791.2084916,-0.0010277332100550186
1743758791.2094674,-0.0010270119937672607
1743758791.2104433,-0.0010277332100550186
1743758791.2114193,-0.0010277332100550186
1743758791.2123954,-0.0010201604390335606
1743758791.2133713,-0.0010104240191488288
1743758791.2143474,-0.000995759287964418
1743758791.2153234,-0.0009944370581035286
1743758791.2162995,-0.0009849410436480494
1743758791.2172754,-0.0009834986110725337
1743758791.2182512,-0.0009848208409334231
1743758791.2192273,-0.000989628949518476
1743758791.2202036,-0.000992634017384134
1743758791.2211795,-0.000993836044530397
1743758791.2221553,-0.000990109760376981
1743758791.2231314,-0.000989749152233102
1743758791.2241075,-0.0009893885440892232
1743758791.2250834,-0.0009898693549477285
1743758791.2260592,-0.0009868642870820706
1743758791.2270353,-0.0009839794219310388
1743758791.2280116,-0.0009850612463626759
1743758791.2289875,-0.0009865036789381916
1743758791.2299633,-0.0009842198273602915
1743758791.2309394,-0.0009842198273602915
1743758791.2319155,-0.0009850612463626759
1743758791.2328913,-0.0009840996246456653
1743758791.2338672,-0.0009880663142283338
1743758791.2348435,-0.0009952784771059128
1743758791.2358196,-0.0009933552336718918
1743758791.2367954,-0.0009903501658062336
1743758791.2377713,-0.00098818651694296
1743758791.2387474,-0.000989268341374597
1743758791.2397234,-0.0009929946255280127
1743758791.2406993,-0.0009974421259691865
1743758791.2416754,-0.0009979229368276919
1743758791.2426515,-0.0010003269911202182
1743758791.2436275,-0.0010003269911202182
1743758791.2446034,-0.000996480504252176
1743758791.2455792,-0.0010045340861321393
1743758791.2465553,-0.0010030916535566233
1743758791.2475314,-0.0010027310454127445
1743758791.2485075,-0.000998764355830076
1743758791.2494833,-0.0010003269911202182
1743758791.2504594,-0.0009963603015375497
1743758791.2514355,-0.0009898693549477285
1743758791.2524114,-0.0009863834762235653
1743758791.2533872,-0.0009826571920701493
1743758791.2543633,-0.0009885471250868389
1743758791.2553396,-0.0009849410436480494
1743758791.2563155,-0.0009865036789381916
1743758791.2572913,-0.0009848208409334231
1743758791.2582674,-0.000990109760376981
1743758791.2592435,-0.000992634017384134
1743758791.2602193,-0.0010011684101226023
1743758791.2611952,-0.0010056159105637761
1743758791.2621715,-0.0010104240191488288
1743758791.2631476,-0.0010170351684532764
1743758791.2641234,-0.0010200402363189343
1743758791.2650993,-0.0010295362507744133
1743758791.2660754,-0.001028574629057403
1743758791.2670515,-0.001030497872491424
1743758791.2680273,-0.0010217230743237028
1743758791.2690032,-0.001019559425460429
1743758791.2699795,-0.0010154725331631342
1743758791.2709556,-0.001019559425460429
1743758791.2719314,-0.0010226846960407134
1743758791.2729073,-0.0010235261150430975
1743758791.2738833,-0.0010242473313308554
1743758791.2748594,-0.0010331423322132028
1743758791.2758353,-0.001033863548500961
1743758791.2768114,-0.0010337433457863344
1743758791.2777874,-0.00102376652047235
1743758791.2787635,-0.0010173957765971552
1743758791.2797394,-0.0010167947630240236
1743758791.2807152,-0.0010112654381512131
1743758791.2816913,-0.0010024906399834917
1743758791.2826676,-0.0009962400988229234
1743758791.2836435,-0.0009794117187752389
1743758791.2846193,-0.0009652277984493334
1743758791.2855954,-0.0009627035414421807
1743758791.2865715,-0.0009659490147370912
1743758791.2875473,-0.0009801329350629967
1743758791.2885232,-0.0009884269223722126
1743758791.2894993,-0.0009916723956671233
1743758791.2904756,-0.0009853016517919284
1743758791.2914515,-0.0009830178002140284
1743758791.2924273,-0.0009796521242044914
1743758791.2934034,-0.0009791713133459861
1743758791.2943795,-0.0009826571920701493
1743758791.2953553,-0.0009837390165017862
1743758791.2963312,-0.0009830178002140284
1743758791.2973075,-0.0009860228680796863
1743758791.2982836,-0.000987825908799081
1743758791.2992594,-0.0009920330038110023
1743758791.3002353,-0.0009979229368276919
1743758791.3012114,-0.0009975623286838128
1743758791.3021874,-0.0009950380716766602
1743758791.3031633,-0.0009986441531154497
1743758791.3041394,-0.0010074189512831709
1743758791.3051155,-0.0010099432082903237
1743758791.3060915,-0.0010042936807028867
1743758791.3070674,-0.000999124963973955
1743758791.3080432,-0.0009990047612593287
1743758791.3090193,-0.000996841112396055
1743758791.3099954,-0.000993836044530397
1743758791.3109715,-0.000993114828242639
1743758791.3119473,-0.000993114828242639
1743758791.3129234,-0.000993475436386518
1743758791.3138995,-0.0009955188825351653
1743758791.3148754,-0.0009914319902378707
1743758791.3158512,-0.0009943168553889022
1743758791.3168273,-0.0009975623286838128
1743758791.3178036,-0.0009970815178253075
1743758791.3187795,-0.0009907107739501127
1743758791.3197553,-0.0009941966526742759
1743758791.3207314,-0.0010018896264103602
1743758791.3217075,-0.0010080199648563025
1743758791.3226833,-0.0010213624661798237
1743758791.3236592,-0.0010254493584771185
1743758791.3246355,-0.001026651385623382
1743758791.3256116,-0.0010277332100550186
1743758791.3265874,-0.0010268917910526345
1743758791.3275633,-0.0010247281421893607
1743758791.3285394,-0.0010213624661798237
1743758791.3295155,-0.0010115058435804657
1743758791.3304913,-0.0009996057748324603
1743758791.3314672,-0.000982176381211644
1743758791.3324435,-0.0009723197586122861
1743758791.3334196,-0.0009713581368952755
1743758791.3343954,-0.0009750844210486913
1743758791.3353713,-0.0009746036101901861
1743758791.3363473,-0.0009773682726265914
1743758791.3373234,-0.0009738823939024282
1743758791.3382993,-0.0009780894889143495
1743758791.3392754,-0.0009834986110725337
1743758791.3402514,-0.000987825908799081
1743758791.3412275,-0.0009905905712354864
1743758791.3422034,-0.000996119896108297
1743758791.3431792,-0.0009946774635327812
1743758791.3441553,-0.0010023704372688657
1743758791.3451316,-0.0010028512481273708
1743758791.3461075,-0.0010046542888467655
1743758791.3470833,-0.0010039330725590077
1743758791.3480594,-0.0010080199648563025
1743758791.3490355,-0.0010076593567124234
1743758791.3500113,-0.0010060967214222814
1743758791.3509872,-0.0009993653694032076
1743758791.3519633,-0.0010009280046933498
1743758791.3529396,-0.0009943168553889022
1743758791.3539155,-0.0009997259775470866
1743758791.3548913,-0.0009992451666885813
1743758791.3558674,-0.001000687599264097
1743758791.3568435,-0.0009970815178253075
1743758791.3578193,-0.0009980431395423181
1743758791.3587952,-0.0009994855721178338
1743758791.3597715,-0.0009951582743912865
1743758791.3607476,-0.0009984037476861972
1743758791.3617234,-0.0009978027341130656
1743758791.3626993,-0.000996841112396055
1743758791.3636754,-0.0010057361132784024
1743758791.3646514,-0.0010020098291249867
1743758791.3656273,-0.0010072987485685446
1743758791.3666034,-0.0010074189512831709
1743758791.3675795,-0.0010083805730001815
1743758791.3685555,-0.001004774491561392
1743758791.3695314,-0.0010004471938348445
1743758791.3705072,-0.0010009280046933498
1743758791.3714833,-0.000997201720539934
1743758791.3724594,-0.0009966007069668024
1743758791.3734355,-0.000989628949518476
1743758791.3744113,-0.000989628949518476
1743758791.3753874,-0.0009927542200987602
1743758791.3763635,-0.0009962400988229234
1743758791.3773394,-0.000996480504252176
1743758791.3783152,-0.000995759287964418
1743758791.3792913,-0.0009981633422569444
1743758791.3802676,-0.0009990047612593287
1743758791.3812435,-0.0010011684101226023
1743758791.3822193,-0.0009981633422569444
1743758791.3831954,-0.0010030916535566233
1743758791.3841715,-0.0010068179377100393
1743758791.3851473,-0.0010059765187076552
1743758791.3861232,-0.001008981586573313
1743758791.3870995,-0.0010107846272927078
1743758791.3880756,-0.0010088613838586866
1743758791.3890514,-0.00101006341100495
1743758791.3900273,-0.0010038128698443814
1743758791.3910034,-0.0010069381404246656
1743758791.3919795,-0.0010078997621416762
1743758791.3929553,-0.0010083805730001815
1743758791.3939312,-0.0010062169241369077
1743758791.3949075,-0.0009985239504008234
1743758791.3958836,-0.0009947976662474075
1743758791.3968594,-0.0009952784771059128
1743758791.3978353,-0.0009953986798205393
1743758791.3988113,-0.0009994855721178338
1743758791.3997874,-0.0010068179377100393
1743758791.4007633,-0.0010103038164342025
1743758791.4017394,-0.0010139098978729922
1743758791.4027154,-0.001008260370285555
1743758791.4036915,-0.0010173957765971552
1743758791.4046674,-0.0010177563847410343
1743758791.4056432,-0.0010179967901702868
1743758791.4066193,-0.0010238867231869766
1743758791.4075956,-0.0010197998308896815
1743758791.4085715,-0.0010133088842998604
1743758791.4095473,-0.001016554357594771
1743758791.4105234,-0.001016193749450892
1743758791.4114995,-0.0010105442218634553
1743758791.4124753,-0.0010136694924437395
1743758791.4134512,-0.0010099432082903237
1743758791.4144273,-0.001008260370285555
1743758791.4154036,-0.0010112654381512131
1743758791.4163795,-0.0010147513168753763
1743758791.4173553,-0.0010152321277338814
1743758791.4183314,-0.0010189584118872974
1743758791.4193075,-0.0010196796281750553
1743758791.4202833,-0.0010211220607505712
1743758791.4212592,-0.001024848344903987
1743758791.4222355,-0.0010302574670621714
1743758791.4232116,-0.001029416048059787
1743758791.4241874,-0.001028574629057403
1743758791.4251633,-0.001032781724069324
1743758791.4261394,-0.001032781724069324
1743758791.4271154,-0.0010351857783618503
1743758791.4280913,-0.001032781724069324
1743758791.4290674,-0.0010307382779206765
1743758791.4300435,-0.0010276130073403923
1743758791.4310195,-0.0010270119937672607
1743758791.4319954,-0.0010254493584771185
1743758791.4329712,-0.0010201604390335606
1743758791.4339473,-0.0010169149657386501
1743758791.4349234,-0.0010127078707267288
1743758791.4358995,-0.0010184776010287921
1743758791.4368753,-0.001024848344903987
1743758791.4378514,-0.001020280641748187
1743758791.4388275,-0.0010261705747648764
1743758791.4398034,-0.0010312190887791818
1743758791.4407792,-0.0010383110489421345
1743758791.4417553,-0.001042638346668682
1743758791.4427316,-0.0010393928733737716
1743758791.4437075,-0.0010425181439540558
1743758791.4446833,-0.0010492494959731295
1743758791.4456594,-0.0010491292932585032
1743758791.4466355,-0.001048287874256119
1743758791.4476113,-0.0010505717258340191
1743758791.4485872,-0.0010457636172489665
1743758791.4495635,-0.0010432393602418137
1743758791.4505396,-0.0010415565222370452
1743758791.4515154,-0.0010398736842322767
1743758791.4524913,-0.0010379504407982557
1743758791.4534674,-0.0010391524679445189
1743758791.4544435,-0.0010448019955319558
1743758791.4554193,-0.0010450424009612084
1743758791.4563951,-0.0010431191575271874
1743758791.4573715,-0.0010444413873880768
1743758791.4583476,-0.0010520141584095348
1743758791.4593234,-0.0010500909149755138
1743758791.4602993,-0.0010473262525391084
1743758791.4612753,-0.0010467252389659769
1743758791.4622514,-0.0010485282796853716
1743758791.4632275,-0.001046364630822098
1743758791.4642034,-0.0010536969964143033
1743758791.4651794,-0.001055500037133698
1743758791.4661555,-0.0010548990235605665
1743758791.4671314,-0.0010583849022847297
1743758791.4681072,-0.0010552596317044455
1743758791.4690833,-0.001056942469709214
1743758791.4700596,-0.0010570626724238402
1743758791.4710355,-0.0010575434832823455
1743758791.4720113,-0.0010600677402894981
1743758791.4729874,-0.0010589859158578613
1743758791.4739635,-0.0010594667267163666
1743758791.4749393,-0.0010598273348602456
1743758791.4759152,-0.0010640344298721667
1743758791.4768913,-0.0010633132135844088
1743758791.4778676,-0.001062231389152772
1743758791.4788435,-0.0010631930108697823
1743758791.4798193,-0.0010651162543038036
1743758791.4807954,-0.0010581444968554771
1743758791.4817715,-0.0010552596317044455
1743758791.4827473,-0.0010568222669945875
1743758791.4837232,-0.0010563414561360824
1743758791.4846995,-0.0010541778072728086
1743758791.4856756,-0.0010606687538626297
1743758791.4866514,-0.0010559808479922033
1743758791.4876273,-0.0010585051049993562
1743758791.4886034,-0.0010551394289898192
1743758791.4895794,-0.0010516535502656558
1743758791.4905553,-0.0010563414561360824
1743758791.4915314,-0.0010504515231193926
1743758791.4925075,-0.0010516535502656558
1743758791.4934835,-0.0010488888878292506
1743758791.4944594,-0.001048287874256119
1743758791.4954352,-0.0010541778072728086
1743758791.4964113,-0.0010480474688268663
1743758791.4973874,-0.0010484080769707453
1743758791.4983635,-0.0010462444281074716
1743758791.4993393,-0.001046004022678219
1743758791.5003154,-0.0010496101041170085
1743758791.5012915,-0.0010587455104286087
1743758791.5022674,-0.0010606687538626297
1743758791.5032432,-0.0010601879430041244
1743758791.5042193,-0.0010672799031670773
1743758791.5051956,-0.0010613899701503876
1743758791.5061715,-0.0010649960515891773
1743758791.5071473,-0.0010659576733061877
1743758791.5081234,-0.0010619909837235192
1743758791.5090995,-0.0010580242941408506
1743758791.5100753,-0.0010540576045581823
1743758791.5110512,-0.0010397534815176504
1743758791.5120275,-0.0010363878055081135
1743758791.5130036,-0.0010427585493833083
1743758791.5139794,-0.0010440807792441978
1743758791.5149553,-0.0010448019955319558
1743758791.5159314,-0.001047085847109856
1743758791.5169075,-0.0010485282796853716
1743758791.5178833,-0.0010478070633976138
1743758791.5188591,-0.001049369698687756
1743758791.5198355,-0.001049009090543877
1743758791.5208116,-0.0010548990235605665
1743758791.5217874,-0.001054658618131314
1743758791.5227633,-0.001053937401843556
1743758791.5237393,-0.0010503313204047664
1743758791.5247154,-0.0010457636172489665
1743758791.5256915,-0.001046004022678219
1743758791.5266674,-0.0010457636172489665
1743758791.5276434,-0.001046004022678219
1743758791.5286195,-0.0010510525366925242
1743758791.5295954,-0.0010492494959731295
1743758791.5305712,-0.0010481676715414928
1743758791.5315473,-0.0010435999683856927
1743758791.5325236,-0.0010444413873880768
1743758791.5334995,-0.0010409555086639136
1743758791.5344753,-0.0010434797656710662
1743758791.5354514,-0.0010416767249516715
1743758791.5364275,-0.001043720171100319
1743758791.5374033,-0.0010427585493833083
1743758791.5383792,-0.001042998954812561
1743758791.5393553,-0.0010506919285486454
1743758791.5403316,-0.0010503313204047664
1743758791.5413074,-0.001053576793699677
1743758791.5422833,-0.0010521343611241613
1743758791.5432594,-0.0010506919285486454
1743758791.5442355,-0.0010533363882704245
1743758791.5452113,-0.0010480474688268663
1743758791.5461872,-0.0010503313204047664
1743758791.5471635,-0.001048287874256119
1743758791.5481396,-0.0010454030091050874
1743758791.5491154,-0.001042998954812561
1743758791.5500913,-0.0010443211846734505
1743758791.5510674,-0.0010469656443952296
1743758791.5520434,-0.00103879185980064
1743758791.5530193,-0.001042638346668682
1743758791.5539954,-0.0010443211846734505
1743758791.5549715,-0.0010405949005200348
1743758791.5559475,-0.0010399938869469032
1743758791.5569234,-0.0010423979412394295
1743758791.5578992,-0.001042277738524803
1743758791.5588753,-0.0010386716570860135
1743758791.5598514,-0.0010439605765295715
1743758791.5608275,-0.001046004022678219
1743758791.5618033,-0.0010398736842322767
1743758791.5627794,-0.0010427585493833083
1743758791.5637555,-0.0010455232118197137
1743758791.5647314,-0.0010431191575271874
1743758791.5657072,-0.0010455232118197137
1743758791.5666833,-0.001042638346668682
1743758791.5676596,-0.00104792726611224
1743758791.5686355,-0.0010484080769707453
1743758791.5696113,-0.0010439605765295715
1743758791.5705874,-0.0010449221982465821
1743758791.5715635,-0.0010413161168077926
1743758791.5725393,-0.0010381908462275085
1743758791.5735152,-0.0010326615213546977
1743758791.5744915,-0.0010306180752060502
1743758791.5754676,-0.001038431251656761
1743758791.5764434,-0.001035426183791103
1743758791.5774193,-0.0010373494272251241
1743758791.5783954,-0.0010391524679445189
1743758791.5793715,-0.0010399938869469032
1743758791.5803473,-0.0010434797656710662
1743758791.5813231,-0.0010439605765295715
1743758791.5822995,-0.0010472060498244822
1743758791.5832756,-0.0010491292932585032
1743758791.5842514,-0.0010461242253928453
1743758791.5852273,-0.0010492494959731295
1743758791.5862033,-0.0010551394289898192
1743758791.5871794,-0.0010514131448364032
1743758791.5881555,-0.0010455232118197137
1743758791.5891314,-0.0010476868606829875
1743758791.5901074,-0.001042277738524803
1743758791.5910835,-0.001045282806390461
1743758791.5920594,-0.0010446817928173294
1743758791.5930352,-0.001047085847109856
1743758791.5940113,-0.0010415565222370452
1743758791.5949876,-0.0010378302380836294
1743758791.5959635,-0.0010450424009612084
1743758791.5969393,-0.0010421575358101768
1743758791.5979154,-0.0010408353059492873
1743758791.5988915,-0.001038070643512882
1743758791.5998673,-0.0010438403738149452
1743758791.6008432,-0.0010478070633976138
1743758791.6018193,-0.0010455232118197137
1743758791.6027956,-0.0010444413873880768
1743758791.6037714,-0.0010446817928173294
1743758791.6047473,-0.0010496101041170085
1743758791.6057234,-0.00104335956295644
1743758791.6066995,-0.0010467252389659769
1743758791.6076753,-0.0010506919285486454
1743758791.6086512,-0.0010464848335367243
1743758791.6096275,-0.0010466050362513506
1743758791.6106036,-0.0010432393602418137
1743758791.6115794,-0.0010450424009612084
1743758791.6125553,-0.0010464848335367243
1743758791.6135314,-0.0010445615901027033
1743758791.6145074,-0.0010476868606829875
1743758791.6154833,-0.0010468454416806031
1743758791.6164594,-0.0010444413873880768
1743758791.6174355,-0.0010469656443952296
1743758791.6184115,-0.0010500909149755138
1743758791.6193874,-0.0010547788208459402
1743758791.6203632,-0.0010571828751384665
1743758791.6213393,-0.0010575434832823455
1743758791.6223154,-0.0010582646995701034
1743758791.6232915,-0.001057423280567719
1743758791.6242673,-0.001058865713143235
1743758791.6252434,-0.001057303077853093
1743758791.6262195,-0.001056942469709214
1743758791.6271954,-0.0010547788208459402
1743758791.6281712,-0.001056942469709214
1743758791.6291473,-0.001053576793699677
1743758791.6301236,-0.0010536969964143033
1743758791.6310995,-0.001056221253421456
1743758791.6320753,-0.0010576636859969718
1743758791.6330514,-0.001052735374697293
1743758791.6340275,-0.001055500037133698
1743758791.6350033,-0.0010500909149755138
1743758791.6359792,-0.0010521343611241613
1743758791.6369555,-0.0010585051049993562
1743758791.6379316,-0.0010551394289898192
1743758791.6389074,-0.001056221253421456
1743758791.6398833,-0.0010521343611241613
1743758791.6408594,-0.001053216185555798
1743758791.6418355,-0.0010534565909850508
1743758791.6428113,-0.0010567020642799614
1743758791.6437871,-0.0010600677402894981
1743758791.6447635,-0.001059226321287114
1743758791.6457396,-0.001061149564721135
1743758791.6467154,-0.0010587455104286087
1743758791.6476912,-0.0010580242941408506
1743758791.6486673,-0.001057303077853093
1743758791.6496434,-0.001055500037133698
1743758791.6506195,-0.001049009090543877
1743758791.6515954,-0.0010496101041170085
1743758791.6525714,-0.0010506919285486454
1743758791.6535475,-0.0010504515231193926
1743758791.6545234,-0.0010475666579683612
1743758791.6554992,-0.0010481676715414928
1743758791.6564753,-0.0010468454416806031
1743758791.6574516,-0.00104792726611224
1743758791.6584275,-0.0010464848335367243
1743758791.6594033,-0.0010509323339778982
1743758791.6603794,-0.0010504515231193926
1743758791.6613555,-0.0010581444968554771
1743758791.6623313,-0.0010553798344190718
1743758791.6633072,-0.0010581444968554771
1743758791.6642833,-0.0010600677402894981
1743758791.6652596,-0.0010570626724238402
1743758791.6662354,-0.0010581444968554771
1743758791.6672113,-0.001056942469709214
1743758791.6681874,-0.0010587455104286087
1743758791.6691635,-0.001054658618131314
1743758791.6701393,-0.001053216185555798
1743758791.6711152,-0.0010524949692680401
1743758791.6720915,-0.0010538171991289296
1743758791.6730676,-0.0010534565909850508
1743758791.6740434,-0.001054658618131314
1743758791.6750193,-0.0010551394289898192
1743758791.6759953,-0.0010589859158578613
1743758791.6769714,-0.0010570626724238402
1743758791.6779473,-0.0010516535502656558
1743758791.6789234,-0.0010473262525391084
1743758791.6798995,-0.001048287874256119
1743758791.6808755,-0.001051292942121777
1743758791.6818514,-0.0010529757801265454
1743758791.6828272,-0.0010587455104286087
1743758791.6838033,-0.0010628324027259035
1743758791.6847794,-0.0010660778760208142
1743758791.6857555,-0.0010693233493157246
1743758791.6867313,-0.001065356659733056
1743758791.6877074,-0.0010617505782942666
1743758791.6886835,-0.001059226321287114
1743758791.6896594,-0.0010591061185724877
1743758791.6906352,-0.001054658618131314
1743758791.6916113,-0.0010605485511480035
1743758791.6925876,-0.0010575434832823455
1743758791.6935635,-0.0010597071321456193
1743758791.6945393,-0.001057303077853093
1743758791.6955154,-0.0010617505782942666
1743758791.6964915,-0.0010605485511480035
1743758791.6974673,-0.001063433416299035
1743758791.6984432,-0.001060308145718751
1743758791.6994195,-0.001064875848874551
1743758791.7003956,-0.0010680011194548352
1743758791.7013714,-0.0010670394977378246
1743758791.7023473,-0.0010716072008936247
1743758791.7033234,-0.0010704051737473615
1743758791.7042994,-0.0010672799031670773
1743758791.7052753,-0.0010652364570184298
1743758791.7062514,-0.0010686021330279668
1743758791.7072275,-0.0010655970651623089
1743758791.7082036,-0.0010660778760208142
1743758791.7091794,-0.0010591061185724877
1743758791.7101552,-0.001061510172865014
1743758791.7111313,-0.0010598273348602456
1743758791.7121074,-0.0010617505782942666
1743758791.7130835,-0.001064875848874551
1743758791.7140594,-0.0010621111864381457
1743758791.7150354,-0.0010696839574596037
1743758791.7160115,-0.0010689627411718456
1743758791.7169874,-0.0010655970651623089
1743758791.7179632,-0.0010649960515891773
1743758791.7189393,-0.001067880916740209
1743758791.7199156,-0.0010625919972966507
1743758791.7208915,-0.001060788956577256
1743758791.7218673,-0.0010564616588507087
1743758791.7228434,-0.0010657172678769351
1743758791.7238195,-0.001075093079617788
1743758791.7247953,-0.0010748526741885353
1743758791.7257712,-0.0010752132823324144
1743758791.7267473,-0.0010753334850470404
1743758791.7277236,-0.0010799011882028405
1743758791.7286994,-0.0010814638234929827
1743758791.7296753,-0.0010829062560684985
1743758791.7306514,-0.0010791799719150827
1743758791.7316275,-0.0010580242941408506
1743758791.7326033,-0.0010580242941408506
1743758791.7335792,-0.0010580242941408506
1743758791.7345555,-0.0010580242941408506
1743758791.7355316,-0.0010580242941408506
1743758791.7365074,-0.0010580242941408506
1743758791.7374833,-0.0010580242941408506
1743758791.7384593,-0.0010580242941408506
1743758791.7394354,-0.0010580242941408506
1743758791.7404113,-0.0010580242941408506
1743758791.7413874,-0.0010580242941408506
1743758791.7423635,-0.0010580242941408506
1743758791.7433395,-0.0010580242941408506
1743758791.7443154,-0.0010580242941408506
1743758791.7452912,-0.0010580242941408506
1743758791.7462673,-0.0010580242941408506
1743758791.7472434,-0.0010580242941408506
1743758791.7482195,-0.0010580242941408506
1743758791.7491953,-0.0010580242941408506
1743758791.7501714,-0.0010580242941408506
1743758791.7511475,-0.0010580242941408506
1743758791.7521234,-0.0010580242941408506
1743758791.7530992,-0.0010580242941408506
1743758791.7540753,-0.0010580242941408506
1743758791.7550516,-0.0010580242941408506
1743758791.7560275,-0.0010580242941408506
1743758791.7570033,-0.0010580242941408506
1743758791.7579794,-0.0010580242941408506
1743758791.7589555,-0.0010580242941408506
1743758791.7599313,-0.0010580242941408506
1743758791.7609072,-0.0010580242941408506
1743758791.7618835,-0.0010580242941408506
1743758791.7628596,-0.0010580242941408506
1743758791.7638354,-0.0010580242941408506
1743758791.7648113,-0.0010580242941408506
1743758791.7657874,-0.0010580242941408506
1743758791.7667634,-0.0010580242941408506
1743758791.7677393,-0.0010580242941408506
1743758791.7687154,-0.0010580242941408506
1743758791.7696915,-0.0010580242941408506
1743758791.7706676,-0.0010580242941408506
1743758791.7716434,-0.0010580242941408506
1743758791.7726192,-0.0010580242941408506
1743758791.7735953,-0.0010580242941408506
1743758791.7745714,-0.0010580242941408506
1743758791.7755475,-0.0010580242941408506
1743758791.7765234,-0.0010580242941408506
1743758791.7774994,-0.0010580242941408506
1743758791.7784755,-0.0010580242941408506
1743758791.7794514,-0.0010580242941408506
1743758791.7804272,-0.0010580242941408506
1743758791.7814033,-0.0010580242941408506
1743758791.7823796,-0.0010580242941408506
1743758791.7833555,-0.0010595869294309928
1743758791.7843313,-0.0010657172678769351
1743758791.7853074,-0.0010599475375748719
1743758791.7862835,-0.0010593465240017403
1743758791.7872593,-0.0010586253077139824
1743758791.7882352,-0.0010606687538626297
1743758791.7892113,-0.0010610293620065088
1743758791.7901876,-0.0010576636859969718
1743758791.7911634,-0.0010551394289898192
1743758791.7921393,-0.0010534565909850508
1743758791.7931154,-0.0010557404425629508
1743758791.7940915,-0.0010544182127020612
1743758791.7950673,-0.0010511727394071507
1743758791.7960432,-0.0010487686851146244
1743758791.7970195,-0.0010503313204047664
1743758791.7979956,-0.001053937401843556
1743758791.7989714,-0.001056581861565335
1743758791.7999473,-0.0010605485511480035
1743758791.8009233,-0.0010585051049993562
1743758791.8018994,-0.0010624717945820245
1743758791.8028753,-0.0010625919972966507
1743758791.8038514,-0.0010651162543038036
1743758791.8048275,-0.0010586253077139824
1743758791.8058035,-0.0010580242941408506
1743758791.8067794,-0.0010604283484333772
1743758791.8077552,-0.0010526151719826664
1743758791.8087313,-0.0010442009819588243
1743758791.8097074,-0.0010496101041170085
1743758791.8106835,-0.0010547788208459402
1743758791.8116593,-0.0010500909149755138
1743758791.8126354,-0.0010505717258340191
1743758791.8136115,-0.0010514131448364032
1743758791.8145874,-0.0010514131448364032
1743758791.8155632,-0.0010528555774119192
1743758791.8165393,-0.0010548990235605665
1743758791.8175156,-0.001059226321287114
1743758791.8184915,-0.0010593465240017403
1743758791.8194673,-0.0010624717945820245
1743758791.8204434,-0.0010663182814500667
1743758791.8214195,-0.0010671597004524508
1743758791.8223953,-0.0010676405113109562
1743758791.8233712,-0.0010713667954643721
1743758791.8243475,-0.0010746122687592826
1743758791.8253236,-0.0010735304443276457
1743758791.8262994,-0.0010647556461599245
1743758791.8272753,-0.0010499707122608875
1743758791.8282514,-0.0010439605765295715
1743758791.8292274,-0.0010442009819588243
1743758791.8302033,-0.0010444413873880768
1743758791.8311794,-0.0010466050362513506
1743758791.8321555,-0.0010432393602418137
1743758791.8331316,-0.0010480474688268663
1743758791.8341074,-0.0010404746978054083
1743758791.8350832,-0.0010367484136519925
1743758791.8360593,-0.001040354495090782
1743758791.8370354,-0.001049009090543877
1743758791.8380115,-0.001055860645277577
1743758791.8389874,-0.0010557404425629508
1743758791.8399634,-0.0010542980099874349
1743758791.8409395,-0.0010559808479922033
1743758791.8419154,-0.0010466050362513506
1743758791.8428912,-0.0010444413873880768
1743758791.8438673,-0.0010486484823999979
1743758791.8448436,-0.0010522545638387874
1743758791.8458195,-0.0010517737529802823
1743758791.8467953,-0.0010514131448364032
1743758791.8477714,-0.001052735374697293
1743758791.8487475,-0.0010484080769707453
1743758791.8497233,-0.0010509323339778982
1743758791.8506992,-0.0010428787520979346
1743758791.8516755,-0.0010518939556949086
1743758791.8526516,-0.0010484080769707453
1743758791.8536274,-0.0010454030091050874
1743758791.8546033,-0.0010492494959731295
1743758791.8555794,-0.0010540576045581823
1743758791.8565555,-0.0010480474688268663
1743758791.8575313,-0.0010534565909850508
1743758791.8585072,-0.0010568222669945875
1743758791.8594835,-0.0010613899701503876
1743758791.8604596,-0.0010639142271575404
1743758791.8614354,-0.001072448619896009
1743758791.8624113,-0.0010716072008936247
1743758791.8633873,-0.0010718476063228774
1743758791.8643634,-0.0010729294307545141
1743758791.8653393,-0.00106980416017423
1743758791.8663154,-0.001068722335742593
1743758791.8672915,-0.0010625919972966507
1743758791.8682675,-0.0010542980099874349
1743758791.8692434,-0.0010499707122608875
1743758791.8702192,-0.0010499707122608875
1743758791.8711953,-0.0010522545638387874
1743758791.8721714,-0.0010551394289898192
1743758791.8731475,-0.0010576636859969718
1743758791.8741233,-0.0010657172678769351
1743758791.8750994,-0.0010661980787354404
1743758791.8760755,-0.0010701647683181088
1743758791.8770514,-0.0010734102416130194
1743758791.8780272,-0.0010764153094786775
1743758791.8790033,-0.001082665850639246
1743758791.8799796,-0.0010772567284810617
1743758791.8809555,-0.001071727403608251
1743758791.8819313,-0.001074011255186151
1743758791.8829074,-0.001075814295905546
1743758791.8838835,-0.0010730496334691406
1743758791.8848593,-0.0010695637547449772
1743758791.8858352,-0.001064875848874551
1743758791.8868115,-0.0010619909837235192
1743758791.8877876,-0.001062231389152772
1743758791.8887634,-0.0010625919972966507
1743758791.8897393,-0.001064875848874551
1743758791.8907154,-0.0010642748353014194
1743758791.8916914,-0.0010708859846058668
1743758791.8926673,-0.0010699243628888562
1743758791.8936434,-0.0010677607140255824
1743758791.8946195,-0.0010707657818912403
1743758791.8955956,-0.0010681213221694615
1743758791.8965714,-0.0010688425384572195
1743758791.8975472,-0.0010684819303133405
1743758791.8985233,-0.001063433416299035
1743758791.8994994,-0.0010672799031670773
1743758791.9004755,-0.0010594667267163666
1743758791.9014513,-0.0010701647683181088
1743758791.9024274,-0.00107437186333003
1743758791.9034035,-0.0010734102416130194
1743758791.9043794,-0.0010642748353014194
1743758791.9053552,-0.0010680011194548352
1743758791.9063313,-0.0010725688226106353
1743758791.9073076,-0.0010688425384572195
1743758791.9082835,-0.0010675203085963299
1743758791.9092593,-0.0010646354434452983
1743758791.9102354,-0.0010613899701503876
1743758791.9112115,-0.0010605485511480035
1743758791.9121873,-0.0010616303755796403
1743758791.9131632,-0.001062231389152772
1743758791.9141395,-0.0010564616588507087
1743758791.9151156,-0.0010485282796853716
1743758791.9160914,-0.0010541778072728086
1743758791.9170673,-0.0010701647683181088
1743758791.9180434,-0.0010708859846058668
1743758791.9190195,-0.0010699243628888562
1743758791.9199953,-0.0010730496334691406
1743758791.9209712,-0.0010674001058817036
1743758791.9219475,-0.0010676405113109562
1743758791.9229236,-0.0010642748353014194
1743758791.9238994,-0.0010711263900351194
1743758791.9248753,-0.00107208801175213
1743758791.9258513,-0.0010728092280398878
1743758791.9268274,-0.001077737539339567
1743758791.9278033,-0.0010809830126344777
1743758791.9287794,-0.0010835072696416303
1743758791.9297554,-0.001089517405372946
1743758791.9307315,-0.0010969699736797778
1743758791.9317074,-0.0010960083519627672
1743758791.9326832,-0.001092522473238604
1743758791.9336593,-0.0010865123375072882
1743758791.9346356,-0.0010708859846058668
1743758791.9356115,-0.001064875848874551
1743758791.9365873,-0.0010563414561360824
1743758791.9375634,-0.001049850509546261
1743758791.9385395,-0.0010496101041170085
1743758791.9395154,-0.0010595869294309928
1743758791.9404912,-0.0010674001058817036
1743758791.9414673,-0.0010742516606154038
1743758791.9424436,-0.0010785789583419511
1743758791.9434195,-0.001077737539339567
1743758791.9443953,-0.0010767759176225564
1743758791.9453714,-0.0010839880805001356
1743758791.9463475,-0.0010835072696416303
1743758791.9473233,-0.0010866325402219144
1743758791.9482992,-0.0010885557836559357
1743758791.9492755,-0.0010831466614977512
1743758791.9502516,-0.0010784587556273248
1743758791.9512274,-0.0010665586868793193
1743758791.9522033,-0.0010583849022847297
1743758791.9531794,-0.0010536969964143033
1743758791.9541554,-0.0010552596317044455
1743758791.9551313,-0.001055500037133698
1743758791.9561074,-0.0010518939556949086
1743758791.9570835,-0.001048287874256119
1743758791.9580595,-0.001051292942121777
1743758791.9590354,-0.001057303077853093
1743758791.9600112,-0.0010541778072728086
1743758791.9609873,-0.0010624717945820245
1743758791.9619634,-0.0010647556461599245
1743758791.9629395,-0.0010663182814500667
1743758791.9639153,-0.0010646354434452983
1743758791.9648914,-0.0010654768624476826
1743758791.9658675,-0.0010658374705915614
1743758791.9668434,-0.0010692031466010984
1743758791.9678192,-0.0010643950380160455
1743758791.9687953,-0.0010672799031670773
1743758791.9697716,-0.0010716072008936247
1743758791.9707475,-0.0010696839574596037
1743758791.9717233,-0.0010666788895939458
1743758791.9726994,-0.001071727403608251
1743758791.9736755,-0.0010718476063228774
1743758791.9746513,-0.0010735304443276457
1743758791.9756272,-0.0010770163230518091
1743758791.9766035,-0.0010749728769031616
1743758791.9775796,-0.001074011255186151
1743758791.9785554,-0.0010713667954643721
1743758791.9795313,-0.0010756940931909195
1743758791.9805074,-0.0010735304443276457
1743758791.9814835,-0.0010730496334691406
1743758791.9824593,-0.0010744920660446563
1743758791.9834352,-0.0010737708497568985
1743758791.9844115,-0.0010771365257664354
1743758791.9853876,-0.0010742516606154038
1743758791.9863634,-0.001076295106764051
1743758791.9873393,-0.00107208801175213
1743758791.9883153,-0.0010719678090375037
1743758791.9892914,-0.0010812234180637302
1743758791.9902673,-0.0010811032153491037
1743758791.9912434,-0.0010818244316368618
1743758791.9922194,-0.0010856709185049038
1743758791.9931955,-0.0010936042976702409
1743758791.9941714,-0.0010936042976702409
1743758791.9951472,-0.0010912002433777145
1743758791.9961233,-0.0010867527429365407
1743758791.9970996,-0.0010737708497568985
1743758791.9980755,-0.0010701647683181088
1743758791.9990513,-0.0010589859158578613
1743758792.0000274,-0.0010613899701503876
1743758792.0010035,-0.0010597071321456193
1743758792.0019794,-0.0010702849710327352
1743758792.0029552,-0.0010741314579007773
1743758792.0039313,-0.0010704051737473615
1743758792.0049076,-0.0010728092280398878
1743758792.0058835,-0.0010747324714739089
1743758792.0068593,-0.0010803819990613459
1743758792.0078354,-0.0010862719320780354
1743758792.0088115,-0.0010862719320780354
1743758792.0097873,-0.0010818244316368618
1743758792.0107632,-0.001083026458783125
1743758792.0117395,-0.001083387066927004
1743758792.0127156,-0.001080021390917467
1743758792.0136914,-0.0010807426072052249
1743758792.0146673,-0.001075934498620172
1743758792.0156434,-0.00106980416017423
1743758792.0166194,-0.001071727403608251
1743758792.0175953,-0.0010752132823324144
1743758792.0185714,-0.0010797809854882143
1743758792.0195475,-0.0010824254452099934
1743758792.0205235,-0.0010783385529126986
1743758792.0214994,-0.0010808628099198512
1743758792.0224752,-0.0010723284171813825
1743758792.0234513,-0.0010713667954643721
1743758792.0244274,-0.0010731698361837669
1743758792.0254035,-0.0010719678090375037
1743758792.0263793,-0.0010556202398483243
1743758792.0273554,-0.0010496101041170085
1743758792.0283315,-0.0010552596317044455
1743758792.0293074,-0.0010630728081551563
1743758792.0302832,-0.0010699243628888562
1743758792.0312593,-0.0010686021330279668
1743758792.0322356,-0.0010756940931909195
1743758792.0332115,-0.0010865123375072882
1743758792.0341873,-0.0010915608515215936
1743758792.0351634,-0.0010992538252576779
1743758792.0361395,-0.0010982922035406672
1743758792.0371153,-0.001094445716672625
1743758792.0380912,-0.0010927628786678567
1743758792.0390675,-0.0010873537565096725
1743758792.0400436,-0.0010713667954643721
1743758792.0410194,-0.0010734102416130194
1743758792.0419953,-0.00106980416017423
1743758792.0429714,-0.0010639142271575404
1743758792.0439475,-0.001055860645277577
1743758792.0449233,-0.0010621111864381457
1743758792.0458992,-0.0010541778072728086
1743758792.0468755,-0.0010530959828411717
1743758792.0478516,-0.0010571828751384665
1743758792.0488274,-0.001057423280567719
1743758792.0498033,-0.0010601879430041244
1743758792.0507793,-0.0010609091592918825
1743758792.0517554,-0.0010707657818912403
1743758792.0527313,-0.0010681213221694615
1743758792.0537074,-0.0010676405113109562
1743758792.0546834,-0.0010647556461599245
1743758792.0556595,-0.0010666788895939458
1743758792.0566354,-0.001059226321287114
1743758792.0576112,-0.001061510172865014
1743758792.0585873,-0.0010635536190136614
1743758792.0595636,-0.0010701647683181088
1743758792.0605395,-0.0010628324027259035
1743758792.0615153,-0.0010598273348602456
1743758792.0624914,-0.0010633132135844088
1743758792.0634675,-0.0010605485511480035
1743758792.0644433,-0.0010600677402894981
1743758792.0654192,-0.0010625919972966507
1743758792.0663953,-0.0010748526741885353
1743758792.0673716,-0.0010726890253252616
1743758792.0683475,-0.0010713667954643721
1743758792.0693233,-0.0010731698361837669
1743758792.0702994,-0.0010672799031670773
1743758792.0712755,-0.0010702849710327352
1743758792.0722513,-0.001075093079617788
1743758792.0732272,-0.0010730496334691406
1743758792.0742035,-0.001068722335742593
1743758792.0751796,-0.0010666788895939458
1743758792.0761554,-0.0010785789583419511
1743758792.0771313,-0.0010770163230518091
1743758792.0781074,-0.001076295106764051
1743758792.0790834,-0.001080021390917467
1743758792.0800593,-0.0010760547013347985
1743758792.0810354,-0.0010701647683181088
1743758792.0820115,-0.001068361727598714
1743758792.0829875,-0.0010719678090375037
1743758792.0839634,-0.0010728092280398878
1743758792.0849392,-0.0010651162543038036
1743758792.0859153,-0.001058865713143235
1743758792.0868914,-0.0010568222669945875
1743758792.0878675,-0.0010553798344190718
1743758792.0888433,-0.001065356659733056
1743758792.0898194,-0.001068722335742593
1743758792.0907955,-0.0010744920660446563
1743758792.0917714,-0.0010732900388983932
1743758792.0927472,-0.0010760547013347985
1743758792.0937233,-0.0010824254452099934
1743758792.0946996,-0.0010790597692004564
1743758792.0956755,-0.0010755738904762932
1743758792.0966513,-0.0010699243628888562
1743758792.0976274,-0.001063433416299035
1743758792.0986035,-0.0010593465240017403
1743758792.0995793,-0.0010712465927497459
1743758792.1005552,-0.00107208801175213
1743758792.1015315,-0.0010746122687592826
1743758792.1025076,-0.0010647556461599245
1743758792.1034834,-0.0010631930108697823
1743758792.1044593,-0.0010655970651623089
1743758792.1054354,-0.0010713667954643721
1743758792.1064115,-0.0010731698361837669
1743758792.1073873,-0.0010670394977378246
1743758792.1083632,-0.00106980416017423
1743758792.1093395,-0.0010713667954643721
1743758792.1103156,-0.001075453687761667
1743758792.1112914,-0.0010735304443276457
1743758792.1122673,-0.0010665586868793193
1743758792.1132433,-0.0010692031466010984
1743758792.1142194,-0.0010646354434452983
1743758792.1151953,-0.0010748526741885353
1743758792.1161714,-0.0010797809854882143
1743758792.1171474,-0.0010831466614977512
1743758792.1181235,-0.0010794203773443355
1743758792.1190994,-0.0010794203773443355
1743758792.1200752,-0.0010772567284810617
1743758792.1210513,-0.0010726890253252616
1743758792.1220276,-0.0010686021330279668
1743758792.1230035,-0.0010604283484333772
1743758792.1239793,-0.0010547788208459402
1743758792.1249554,-0.0010485282796853716
1743758792.1259315,-0.0010517737529802823
1743758792.1269073,-0.0010564616588507087
1743758792.1278832,-0.0010582646995701034
1743758792.1288593,-0.0010651162543038036
1743758792.1298356,-0.0010624717945820245
1743758792.1308115,-0.001066799092308572
1743758792.1317873,-0.0010681213221694615
1743758792.1327634,-0.0010702849710327352
1743758792.1337395,-0.0010708859846058668
1743758792.1347153,-0.0010761749040494248
1743758792.1356912,-0.0010731698361837669
1743758792.1366675,-0.0010692031466010984
1743758792.1376436,-0.0010636738217282879
1743758792.1386194,-0.0010580242941408506
1743758792.1395953,-0.0010496101041170085
1743758792.1405714,-0.0010506919285486454
1743758792.1415474,-0.001055860645277577
1743758792.1425233,-0.0010576636859969718
1743758792.1434994,-0.001060308145718751
1743758792.1444755,-0.0010591061185724877
1743758792.1454515,-0.0010594667267163666
1743758792.1464274,-0.0010601879430041244
1743758792.1474032,-0.0010613899701503876
1743758792.1483793,-0.0010617505782942666
1743758792.1493554,-0.001060308145718751
1743758792.1503315,-0.0010628324027259035
1743758792.1513073,-0.0010621111864381457
1743758792.1522834,-0.0010593465240017403
1743758792.1532595,-0.0010576636859969718
1743758792.1542354,-0.0010639142271575404
1743758792.1552112,-0.0010652364570184298
1743758792.1561873,-0.0010570626724238402
1743758792.1571636,-0.0010613899701503876
1743758792.1581395,-0.0010587455104286087
1743758792.1591153,-0.0010594667267163666
1743758792.1600914,-0.0010570626724238402
1743758792.1610675,-0.001054658618131314
1743758792.1620433,-0.0010564616588507087
1743758792.1630192,-0.001059226321287114
1743758792.1639955,-0.0010646354434452983
1743758792.1649716,-0.0010640344298721667
1743758792.1659474,-0.0010639142271575404
1743758792.1669233,-0.0010625919972966507
1743758792.1678994,-0.0010606687538626297
1743758792.1688755,-0.001063794024442914
1743758792.1698513,-0.0010597071321456193
1743758792.1708272,-0.0010604283484333772
1743758792.1718035,-0.0010557404425629508
1743758792.1727796,-0.0010550192262751927
1743758792.1737554,-0.0010633132135844088
1743758792.1747313,-0.0010605485511480035
1743758792.1757073,-0.0010682415248840877
1743758792.1766834,-0.001071727403608251
1743758792.1776593,-0.0010640344298721667
1743758792.1786354,-0.0010631930108697823
1743758792.1796114,-0.001064154632586793
1743758792.1805875,-0.001067880916740209
1743758792.1815634,-0.001064515240730672
1743758792.1825392,-0.0010581444968554771
1743758792.1835153,-0.001055500037133698
1743758792.1844916,-0.0010570626724238402
1743758792.1854675,-0.001054658618131314
1743758792.1864433,-0.001053937401843556
1743758792.1874194,-0.0010582646995701034
1743758792.1883955,-0.0010511727394071507
1743758792.1893713,-0.0010468454416806031
1743758792.1903472,-0.0010494899014023822
1743758792.1913233,-0.0010522545638387874
1743758792.1922996,-0.0010540576045581823
1743758792.1932755,-0.0010538171991289296
1743758792.1942513,-0.0010523747665534139
1743758792.1952274,-0.0010506919285486454
1743758792.1962035,-0.0010556202398483243
1743758792.1971793,-0.0010568222669945875
1743758792.1981552,-0.001057783888711598
1743758792.1991315,-0.0010526151719826664
1743758792.2001076,-0.0010462444281074716
1743758792.2010834,-0.0010451626036758349
1743758792.2020593,-0.0010478070633976138
1743758792.2030354,-0.0010492494959731295
1743758792.2040114,-0.001049850509546261
1743758792.2049873,-0.0010464848335367243
1743758792.2059634,-0.0010399938869469032
1743758792.2069395,-0.0010455232118197137
1743758792.2079155,-0.0010462444281074716
1743758792.2088914,-0.0010488888878292506
1743758792.2098672,-0.0010457636172489665
1743758792.2108433,-0.001052735374697293
1743758792.2118194,-0.0010491292932585032
1743758792.2127955,-0.001049369698687756
1743758792.2137713,-0.0010500909149755138
1743758792.2147474,-0.0010468454416806031
1743758792.2157235,-0.0010516535502656558
1743758792.2166994,-0.0010484080769707453
1743758792.2176752,-0.00104792726611224
1743758792.2186513,-0.0010411959140931664
1743758792.2196276,-0.0010478070633976138
1743758792.2206035,-0.0010428787520979346
1743758792.2215793,-0.0010457636172489665
1743758792.2225554,-0.001042998954812561
1743758792.2235315,-0.0010478070633976138
1743758792.2245073,-0.001045282806390461
1743758792.2254832,-0.0010397534815176504
1743758792.2264595,-0.0010320605077815662
1743758792.2274356,-0.0010360271973642347
1743758792.2284114,-0.0010316998996376871
1743758792.2293873,-0.0010298968589182924
1743758792.2303634,-0.001035786791934982
1743758792.2313395,-0.001045282806390461
1743758792.2323153,-0.0010445615901027033
1743758792.2332911,-0.0010368686163666188
1743758792.2342675,-0.0010303776697767977
1743758792.2352436,-0.0010296564534890398
1743758792.2362194,-0.0010310988860645555
1743758792.2371953,-0.00103422415664484
1743758792.2381713,-0.0010309786833499293
1743758792.2391474,-0.0010333827376424556
1743758792.2401235,-0.0010261705747648764
1743758792.2410994,-0.001026651385623382
1743758792.2420754,-0.001028214020913524
1743758792.2430515,-0.0010292958453451608
1743758792.2440274,-0.0010337433457863344
1743758792.2450032,-0.0010296564534890398
1743758792.2459793,-0.0010315796969230608
1743758792.2469556,-0.0010316998996376871
1743758792.2479315,-0.001030497872491424
1743758792.2489073,-0.001032781724069324
1743758792.2498834,-0.0010246079394747344
1743758792.2508595,-0.001030137264347545
1743758792.2518353,-0.0010310988860645555
1743758792.2528112,-0.001029776656203666
1743758792.2537873,-0.0010244877367601081
1743758792.2547636,-0.0010247281421893607
1743758792.2557395,-0.0010279736154842711
1743758792.2567153,-0.0010255695611917448
1743758792.2576914,-0.0010255695611917448
1743758792.2586675,-0.0010219634797529553
1743758792.2596433,-0.0010217230743237028
1743758792.2606192,-0.001026771588338008
1743758792.2615955,-0.0010336231430717084
1743758792.2625716,-0.0010262907774795029
1743758792.2635474,-0.0010244877367601081
1743758792.2645233,-0.001030497872491424
1743758792.2654994,-0.0010258099666209976
1743758792.2664754,-0.0010386716570860135
1743758792.2674513,-0.0010348251702179715
1743758792.2684274,-0.0010348251702179715
1743758792.2694035,-0.001031339291493808
1743758792.2703795,-0.0010378302380836294
1743758792.2713554,-0.0010356665892203556
1743758792.2723312,-0.001036988819081245
1743758792.2733073,-0.0010398736842322767
1743758792.2742834,-0.0010319403050669397
1743758792.2752595,-0.0010254493584771185
1743758792.2762353,-0.0010273726019111396
1743758792.2772114,-0.0010254493584771185
1743758792.2781875,-0.0010240069259016028
1743758792.2791634,-0.0010238867231869766
1743758792.2801392,-0.0010159533440216395
1743758792.2811153,-0.0010163139521655185
1743758792.2820916,-0.0010231655068992185
1743758792.2830675,-0.001031339291493808
1743758792.2840433,-0.0010409555086639136
1743758792.2850194,-0.0010391524679445189
1743758792.2859955,-0.0010383110489421345
1743758792.2869713,-0.00104335956295644
1743758792.2879472,-0.0010421575358101768
1743758792.2889235,-0.00103422415664484
1743758792.2898996,-0.0010177563847410343
1743758792.2908754,-0.0010099432082903237
1743758792.2918513,-0.001008981586573313
1743758792.2928274,-0.0010188382091726711
1743758792.2938035,-0.0010159533440216395
1743758792.2947793,-0.001014991722304629
1743758792.2957551,-0.0010129482761559816
1743758792.2967315,-0.0010113856408658394
1743758792.2977076,-0.001016193749450892
1743758792.2986834,-0.0010246079394747344
1743758792.2996593,-0.0010309786833499293
1743758792.3006353,-0.0010319403050669397
1743758792.3016114,-0.001029776656203666
1743758792.3025875,-0.0010272523991965135
1743758792.3035634,-0.0010262907774795029
1743758792.3045394,-0.0010234059123284713
1743758792.3055155,-0.0010289352372012818
1743758792.3064914,-0.0010223240878968344
1743758792.3074672,-0.0010164341548801448
1743758792.3084433,-0.001022925101469966
1743758792.3094196,-0.0010288150344866555
1743758792.3103955,-0.0010339837512155872
1743758792.3113713,-0.0010318201023523134
1743758792.3123474,-0.0010260503720502503
1743758792.3133235,-0.0010260503720502503
1743758792.3142993,-0.0010268917910526345
1743758792.3152752,-0.001014270506016871
1743758792.3162513,-0.0010062169241369077
1743758792.3172276,-0.0010000865856909654
1743758792.3182034,-0.000998764355830076
1743758792.3191793,-0.0009994855721178338
1743758792.3201554,-0.0010027310454127445
1743758792.3211315,-0.0010038128698443814
1743758792.3221073,-0.0010115058435804657
1743758792.3230832,-0.0010106644245780816
1743758792.3240595,-0.0010124674652974763
1743758792.3250356,-0.0010131886815852342
1743758792.3260114,-0.0010183573983141658
1743758792.3269873,-0.001022564493326087
1743758792.3279634,-0.0010298968589182924
1743758792.3289394,-0.001025208953047866
1743758792.3299153,-0.0010296564534890398
1743758792.3308914,-0.0010325413186400712
1743758792.3318675,-0.0010280938181988976
1743758792.3328435,-0.00103422415664484
1743758792.3338194,-0.0010200402363189343
1743758792.3347952,-0.0010105442218634553
1743758792.3357713,-0.0010091017892879394
1743758792.3367474,-0.0010003269911202182
1743758792.3377235,-0.0010022502345542392
1743758792.3386993,-0.0010026108426981182
1743758792.3396754,-0.0010029714508419973
1743758792.3406515,-0.0009939562472450233
1743758792.3416274,-0.0009886673278014654
1743758792.3426032,-0.0009986441531154497
1743758792.3435793,-0.0009946774635327812
1743758792.3445556,-0.0009922734092402549
1743758792.3455315,-0.0009975623286838128
1743758792.3465073,-0.0009994855721178338
1743758792.3474834,-0.0010059765187076552
1743758792.3484595,-0.0010038128698443814
1743758792.3494353,-0.0010024906399834917
1743758792.3504112,-0.0010042936807028867
1743758792.3513875,-0.001008140167570929
1743758792.3523636,-0.001004413883417513
1743758792.3533394,-0.0010038128698443814
1743758792.3543153,-0.000996841112396055
1743758792.3552914,-0.0009993653694032076
1743758792.3562675,-0.0009984037476861972
1743758792.3572433,-0.0010009280046933498
1743758792.3582191,-0.0010036926671297551
1743758792.3591955,-0.0010027310454127445
1743758792.3601716,-0.0009999663829763391
1743758792.3611474,-0.001002130031839613
1743758792.3621233,-0.001008620978429434
1743758792.3630993,-0.0010059765187076552
1743758792.3640754,-0.00101006341100495
1743758792.3650515,-0.0010083805730001815
1743758792.3660274,-0.0010026108426981182
1743758792.3670034,-0.0009953986798205393
1743758792.3679795,-0.0010018896264103602
1743758792.3689554,-0.0010060967214222814
1743758792.3699312,-0.0009999663829763391
1743758792.3709073,-0.001006697734995413
1743758792.3718836,-0.0010101836137195762
1743758792.3728595,-0.0010054957078491499
1743758792.3738353,-0.0010039330725590077
1743758792.3748114,-0.0010023704372688657
1743758792.3757875,-0.0010018896264103602
1743758792.3767633,-0.000998764355830076
1743758792.3777392,-0.0009980431395423181
1743758792.3787153,-0.0010022502345542392
1743758792.3796916,-0.0009992451666885813
1743758792.3806674,-0.0010071785458539183
1743758792.3816433,-0.0010036926671297551
1743758792.3826194,-0.0010035724644151289
1743758792.3835955,-0.0010075391539977972
1743758792.3845713,-0.0010093421947171921
1743758792.3855472,-0.0010074189512831709
1743758792.3865235,-0.0010060967214222814
1743758792.3874996,-0.0010009280046933498
1743758792.3884754,-0.0009959996933936708
1743758792.3894513,-0.0009979229368276919
1743758792.3904274,-0.001004774491561392
1743758792.3914034,-0.0010012886128372286
1743758792.3923793,-0.0010022502345542392
1743758792.3933554,-0.0010087411811440605
1743758792.3943315,-0.0010131886815852342
1743758792.3953075,-0.0010113856408658394
1743758792.3962834,-0.00100777955942705
1743758792.3972592,-0.0010083805730001815
1743758792.3982353,-0.0010103038164342025
1743758792.3992114,-0.0010104240191488288
1743758792.4001875,-0.0010151119250192554
1743758792.4011633,-0.0010135492897291132
1743758792.4021394,-0.0010145109114461238
1743758792.4031155,-0.0010113856408658394
1743758792.4040914,-0.0010133088842998604
1743758792.4050672,-0.0010106644245780816
1743758792.4060433,-0.001011986654438971
1743758792.4070196,-0.0010022502345542392
1743758792.4079955,-0.0009979229368276919
1743758792.4089713,-0.000994557260818155
1743758792.4099474,-0.001000687599264097
1743758792.4109235,-0.0010029714508419973
1743758792.4118993,-0.001000206788405592
1743758792.4128752,-0.0009990047612593287
1743758792.4138515,-0.0009993653694032076
1743758792.4148276,-0.0009956390852497918
1743758792.4158034,-0.0009922734092402549
1743758792.4167793,-0.0010020098291249867
1743758792.4177554,-0.00100777955942705
1743758792.4187315,-0.0010003269911202182
1743758792.4197073,-0.0010005673965494707
1743758792.4206831,-0.00099732192325456
1743758792.4216595,-0.0010024906399834917
1743758792.4226356,-0.0010048946942760183
1743758792.4236114,-0.001000687599264097
1743758792.4245872,-0.0010088613838586866
1743758792.4255633,-0.0010093421947171921
1743758792.4265394,-0.001019920033604308
1743758792.4275155,-0.0010208816553213187
1743758792.4284914,-0.00100777955942705
1743758792.4294674,-0.0010012886128372286
1743758792.4304435,-0.0010042936807028867
1743758792.4314194,-0.0010075391539977972
1743758792.4323952,-0.000999124963973955
1743758792.4333713,-0.000991552192952497
1743758792.4343476,-0.0009875855033698285
1743758792.4353235,-0.0009951582743912865
1743758792.4362993,-0.0009959996933936708
1743758792.4372754,-0.0009958794906790443
1743758792.4382515,-0.000996841112396055
1743758792.4392273,-0.0009952784771059128
1743758792.4402032,-0.0010018896264103602
1743758792.4411793,-0.0010003269911202182
1743758792.4421556,-0.0009996057748324603
1743758792.4431314,-0.0009920330038110023
1743758792.4441073,-0.0009849410436480494
1743758792.4450834,-0.0009831380029286547
1743758792.4460595,-0.0009770076644827123
1743758792.4470353,-0.0009667904337394754
1743758792.4480112,-0.0009565732029962384
1743758792.4489875,-0.0009706369206075176
1743758792.4499636,-0.0009711177314660229
1743758792.4509394,-0.0009784500970582283
1743758792.4519153,-0.0009880663142283338
1743758792.4528913,-0.0009832582056432811
1743758792.4538674,-0.0009848208409334231
1743758792.4548433,-0.0009791713133459861
1743758792.4558194,-0.0009773682726265914
1743758792.4567955,-0.0009834986110725337
1743758792.4577715,-0.0009895087468038495
1743758792.4587474,-0.0009798925296337442
1743758792.4597232,-0.0009748440156194388
1743758792.4606993,-0.000976887461768086
1743758792.4616754,-0.0009895087468038495
1743758792.4626515,-0.0009890279359453442
1743758792.4636273,-0.0009874653006552022
1743758792.4646034,-0.0009916723956671233
1743758792.4655795,-0.0009891481386599705
1743758792.4665554,-0.0009949178689620337
1743758792.4675312,-0.000991191584808618
1743758792.4685073,-0.000991552192952497
1743758792.4694836,-0.0009907107739501127
1743758792.4704595,-0.0009933552336718918
1743758792.4714353,-0.0009981633422569444
1743758792.4724114,-0.0009985239504008234
1743758792.4733875,-0.0009980431395423181
1743758792.4743633,-0.0009951582743912865
1743758792.4753392,-0.0009914319902378707
1743758792.4763155,-0.000980253137777623
1743758792.4772916,-0.0009785702997728545
1743758792.4782674,-0.000982897597499402
1743758792.4792433,-0.0009866238816528179
1743758792.4802194,-0.0009842198273602915
1743758792.4811954,-0.0009856622599358075
1743758792.4821713,-0.0009812147594946336
1743758792.4831474,-0.0009790511106313599
1743758792.4841235,-0.0009762864481949545
1743758792.4850996,-0.0009798925296337442
1743758792.4860754,-0.0009819359757823915
1743758792.4870512,-0.0009804935432068758
1743758792.4880273,-0.0009801329350629967
1743758792.4890034,-0.000980613745921502
1743758792.4899795,-0.000982897597499402
1743758792.4909554,-0.0009798925296337442
1743758792.4919314,-0.000978690502487481
1743758792.4929075,-0.000981695570353139
1743758792.4938834,-0.000978810705202107
1743758792.4948592,-0.0009780894889143495
1743758792.4958353,-0.000973401583043923
1743758792.4968116,-0.000977969286199723
1743758792.4977875,-0.0009794117187752389
1743758792.4987633,-0.0009780894889143495
1743758792.4997394,-0.0009748440156194388
1743758792.5007155,-0.000976046042765702
1743758792.5016913,-0.0009748440156194388
1743758792.5026672,-0.0009737621911878018
1743758792.5036433,-0.000977608678055844
1743758792.5046196,-0.00098133496220926
1743758792.5055954,-0.000977969286199723
1743758792.5065713,-0.000978810705202107
1743758792.5075474,-0.0009752046237633177
1743758792.5085235,-0.0009824167866408968
1743758792.5094993,-0.0009772480699119651
1743758792.5104752,-0.0009736419884731756
1743758792.5114515,-0.000975324826477944
1743758792.5124276,-0.0009772480699119651
1743758792.5134034,-0.0009750844210486913
1743758792.5143793,-0.0009694348934612544
1743758792.5153553,-0.0009707571233221439
1743758792.5163314,-0.0009706369206075176
1743758792.5173073,-0.0009627035414421807
1743758792.5182834,-0.0009552509731353488
1743758792.5192595,-0.0009552509731353488
1743758792.5202355,-0.0009494812428332856
1743758792.5212114,-0.0009470771885407592
1743758792.5221872,-0.0009398650256631801
1743758792.5231633,-0.0009315710383539642
1743758792.5241394,-0.000931450835639338
1743758792.5251155,-0.0009250800917641432
1743758792.5260913,-0.0009206325913229694
1743758792.5270674,-0.0009143820501624008
1743758792.5280435,-0.0009072900899994479
1743758792.5290194,-0.0008999577244072427
1743758792.5299952,-0.0008979142782585952
1743758792.5309713,-0.0009006789406950005
1743758792.5319476,-0.000913300225730764
1743758792.5329235,-0.0009239982673325062
1743758792.5338993,-0.0009348165116488748
1743758792.5348754,-0.0009522459052696909
1743758792.5358515,-0.0009818157730677652
1743758792.5368273,-0.0009944370581035286
1743758792.5378032,-0.0009984037476861972
1743758792.5387795,-0.0010087411811440605
1743758792.5397556,-0.0010085007757148078
1743758792.5407314,-0.0010127078707267288
1743758792.5417073,-0.001008140167570929
1743758792.5426834,-0.0009988845585447023
1743758792.5436594,-0.000995759287964418
1743758792.5446353,-0.0009925138146695074
1743758792.5456114,-0.0009867440843674441
1743758792.5465875,-0.0009932350309572655
1743758792.5475636,-0.0009868642870820706
1743758792.5485394,-0.0009860228680796863
1743758792.5495152,-0.0009822965839262705
1743758792.5504913,-0.0009837390165017862
1743758792.5514674,-0.0009755652319071967
1743758792.5524435,-0.0009746036101901861
1743758792.5534194,-0.0009741227993316808
1743758792.5543954,-0.0009720793531830334
1743758792.5553715,-0.0009695550961758807
1743758792.5563474,-0.0009669106364541017
1743758792.5573232,-0.0009717187450391545
1743758792.5582993,-0.0009840996246456653
1743758792.5592756,-0.0009893885440892232
1743758792.5602515,-0.0009856622599358075
1743758792.5612273,-0.0009877057060844548
1743758792.5622034,-0.0009970815178253075
1743758792.5631795,-0.0009975623286838128
1743758792.5641553,-0.0009953986798205393
1743758792.5651312,-0.000997682531398439
1743758792.5661073,-0.0009928744228133864
1743758792.5670836,-0.0009832582056432811
1743758792.5680594,-0.0009667904337394754
1743758792.5690353,-0.0009420286745264539
1743758792.5700114,-0.000936379146939017
1743758792.5709875,-0.0009399852283778065
1743758792.5719633,-0.000947317593970012
1743758792.5729392,-0.0009463559722530014
1743758792.5739155,-0.0009441923233897277
1743758792.5748916,-0.0009521257025550646
1743758792.5758674,-0.0009445529315336066
1743758792.5768433,-0.0009523661079843173
1743758792.5778193,-0.0009536883378452068
1743758792.5787954,-0.0009557317839938542
1743758792.5797713,-0.0009481590129723961
1743758792.5807474,-0.0009502024591210435
1743758792.5817235,-0.0009520054998404383
1743758792.5826995,-0.0009482792156870224
1743758792.5836754,-0.0009530873242720753
1743758792.5846512,-0.000957534824713249
1743758792.5856273,-0.0009618621224397964
1743758792.5866034,-0.0009630641495860596
1743758792.5875795,-0.0009713581368952755
1743758792.5885553,-0.0009808541513507546
1743758792.5895314,-0.0009838592192164127
1743758792.5905075,-0.0009759258400510756
1743758792.5914834,-0.0009518852971258121
1743758792.5924592,-0.0009455145532506172
1743758792.5934353,-0.0009349367143635011
1743758792.5944116,-0.0009017607651266374
1743758792.5953875,-0.0008601706258659314
1743758792.5963633,-0.0008566847471417682
1743758792.5973394,-0.0008581271797172839
1743758792.5983155,-0.0008564443417125155
1743758792.5992913,-0.0008469483272570364
1743758792.6002672,-0.0008408179888110943
1743758792.6012435,-0.0008527180575590997
1743758792.6022196,-0.0008795232629207686
1743758792.6031954,-0.0009004385352657479
1743758792.6041713,-0.0009321720519270958
1743758792.6051474,-0.0009355377279366327
1743758792.6061234,-0.0009398650256631801
1743758792.6070993,-0.0009417882690972013
1743758792.6080754,-0.0009550105677060963
1743758792.6090515,-0.0009659490147370912
1743758792.6100276,-0.0009742430020463072
1743758792.6110034,-0.0009645065821615754
1743758792.6119792,-0.000965107595734707
1743758792.6129553,-0.0009660692174517175
1743758792.6139314,-0.0009708773260367703
1743758792.6149075,-0.000972680366756165
1743758792.6158834,-0.0009673914473126069
1743758792.6168594,-0.0009693146907466281
1743758792.6178355,-0.0009694348934612544
1743758792.6188114,-0.0009712379341806492
1743758792.6197872,-0.0009713581368952755
1743758792.6207633,-0.0009672712445979808
1743758792.6217396,-0.0009615015142959175
1743758792.6227155,-0.0009586166491448858
1743758792.6236913,-0.0009634247577299386
1743758792.6246674,-0.0009572944192839963
1743758792.6256435,-0.0009558519867084804
1743758792.6266193,-0.0009570540138547438
1743758792.6275952,-0.0009547701622768436
1743758792.6285715,-0.0009559721894231068
1743758792.6295476,-0.0009570540138547438
1743758792.6305234,-0.0009547701622768436
1743758792.6314993,-0.0009592176627180173
1743758792.6324754,-0.0009599388790057753
1743758792.6334515,-0.0009515246889819331
1743758792.6344273,-0.0009533277297013278
1743758792.6354032,-0.0009509236754088015
1743758792.6363795,-0.0009502024591210435
1743758792.6373556,-0.0009514044862673067
1743758792.6383314,-0.0009546499595622172
1743758792.6393073,-0.0009551307704207227
1743758792.6402833,-0.0009502024591210435
1743758792.6412594,-0.0009560923921377332
1743758792.6422353,-0.0009538085405598331
1743758792.6432114,-0.0009480388102577698
1743758792.6441875,-0.0009504428645502962
1743758792.6451635,-0.0009509236754088015
1743758792.6461394,-0.0009528469188428225
1743758792.6471152,-0.0009511640808380541
1743758792.6480913,-0.0009510438781234278
1743758792.6490674,-0.0009502024591210435
1743758792.6500435,-0.0009530873242720753
1743758792.6510193,-0.0009606600952935333
1743758792.6519954,-0.00095717421656937
1743758792.6529715,-0.0009497216482625383
1743758792.6539474,-0.0009470771885407592
1743758792.6549232,-0.0009450337423921118
1743758792.6558993,-0.0009506832699795489
1743758792.6568756,-0.0009529671215574489
1743758792.6578515,-0.0009475579993992645
1743758792.6588273,-0.0009470771885407592
1743758792.6598034,-0.0009334942817879853
1743758792.6607795,-0.0009410670528094434
1743758792.6617553,-0.0009544095541329647
1743758792.6627312,-0.0009502024591210435
1743758792.6637075,-0.0009514044862673067
1743758792.6646836,-0.000948880229260154
1743758792.6656594,-0.0009534479324159541
1743758792.6666353,-0.0009509236754088015
1743758792.6676114,-0.0009508034726941751
1743758792.6685874,-0.0009527267161281962
1743758792.6695633,-0.0009505630672649226
1743758792.6705394,-0.0009468367831115067
1743758792.6715155,-0.000946235769538375
1743758792.6724916,-0.0009491206346894067
1743758792.6734674,-0.0009595782708618964
1743758792.6744432,-0.0009645065821615754
1743758792.6754193,-0.0009742430020463072
1743758792.6763954,-0.0009844602327895443
1743758792.6773715,-0.0009879461115137073
1743758792.6783473,-0.0009895087468038495
1743758792.6793234,-0.0009866238816528179
1743758792.6802995,-0.00098361881378716
1743758792.6812754,-0.0009682328663149913
1743758792.6822512,-0.0009566934057108647
1743758792.6832273,-0.0009528469188428225
1743758792.6842036,-0.000954529756847591
1743758792.6851795,-0.0009524863106989437
1743758792.6861553,-0.0009696752988905071
1743758792.6871314,-0.000989268341374597
1743758792.6881075,-0.000996119896108297
1743758792.6890833,-0.0010032118562712498
1743758792.6900592,-0.0009958794906790443
1743758792.6910355,-0.0009895087468038495
1743758792.6920116,-0.0009797723269191177
1743758792.6929874,-0.0009681126636003649
1743758792.6939633,-0.0009761662454803283
1743758792.6949394,-0.0009580156355717542
1743758792.6959155,-0.000922796240186243
1743758792.6968913,-0.0008995971162633637
1743758792.6978672,-0.0008801242764939002
1743758792.6988435,-0.0008737535326187053
1743758792.6998196,-0.0008921445479565319
1743758792.7007954,-0.0008968324538269584
1743758792.7017713,-0.0009018809678412637
1743758792.7027473,-0.000915944685452543
1743758792.7037234,-0.000920512388608343
1743758792.7046993,-0.0009214740103253536
1743758792.7056754,-0.0009254406999080221
1743758792.7066514,-0.0009254406999080221
1743758792.7076275,-0.0009260417134811537
1743758792.7086034,-0.0009264023216250327
1743758792.7095792,-0.0009315710383539642
1743758792.7105553,-0.0009325326600709748
1743758792.7115316,-0.0009295275922053169
1743758792.7125075,-0.0009326528627856012
1743758792.7134833,-0.0009301286057784485
1743758792.7144594,-0.0009375811740852802
1743758792.7154355,-0.0009344559035049959
1743758792.7164114,-0.0009355377279366327
1743758792.7173872,-0.0009358983360805117
1743758792.7183633,-0.0009351771197927539
1743758792.7193396,-0.0009396246202339276
1743758792.7203155,-0.0009378215795145329
1743758792.7212913,-0.0009374609713706538
1743758792.7222674,-0.0009429902962434645
1743758792.7232435,-0.0009327730655002276
1743758792.7242193,-0.0009395044175193012
1743758792.7251952,-0.0009392640120900486
1743758792.7261715,-0.0009440721206751013
1743758792.7271476,-0.0009428700935288382
1743758792.7281234,-0.0009426296880995855
1743758792.7290993,-0.0009422690799557066
1743758792.7300754,-0.0009417882690972013
1743758792.7310514,-0.0009401054310924328
1743758792.7320273,-0.0009408266473801908
1743758792.7330034,-0.0009403458365216856
1743758792.7339795,-0.0009415478636679487
1743758792.7349555,-0.0009396246202339276
1743758792.7359314,-0.0009369801605121486
1743758792.7369072,-0.000939744822948554
1743758792.7378833,-0.0009355377279366327
1743758792.7388594,-0.0009339750926464907
1743758792.7398355,-0.0009332538763587328
1743758792.7408113,-0.0009324124573563485
1743758792.7417874,-0.000930369011207701
1743758792.7427635,-0.0009358983360805117
1743758792.7437394,-0.0009319316464978432
1743758792.7447152,-0.0009345761062196223
1743758792.7456913,-0.0009343357007903695
1743758792.7466676,-0.0009338548899318643
1743758792.7476435,-0.0009381821876584118
1743758792.7486193,-0.000936379146939017
1743758792.7495954,-0.0009395044175193012
1743758792.7505715,-0.0009409468500948171
1743758792.7515473,-0.0009411872555240697
1743758792.7525232,-0.0009326528627856012
1743758792.7534995,-0.0009199113750352115
1743758792.7544756,-0.0009114971850113692
1743758792.7554514,-0.0009018809678412637
1743758792.7564273,-0.0008921445479565319
1743758792.7574034,-0.000886855628512974
1743758792.7583795,-0.0008849323850789528
1743758792.7593553,-0.0008804848846377791
1743758792.7603312,-0.0008695464376067843
1743758792.7613075,-0.0008606514367244366
1743758792.7622836,-0.0008552423145662524
1743758792.7632594,-0.0008527180575590997
1743758792.7642353,-0.0008610120448683156
1743758792.7652113,-0.0008774798167721212
1743758792.7661874,-0.0008987556972609795
1743758792.7671633,-0.0009164254963110481
1743758792.7681394,-0.0009140214420185218
1743758792.7691154,-0.0009020011705558901
1743758792.7700915,-0.0009011597515535059
1743758792.7710674,-0.0009048860357069216
1743758792.7720432,-0.0009225558347569905
1743758792.7730193,-0.0009477984048285172
1743758792.7739956,-0.0009589772572887648
1743758792.7749715,-0.0009756854346218229
1743758792.7759473,-0.0009996057748324603
1743758792.7769234,-0.001019920033604308
1743758792.7778995,-0.001015712938592387
1743758792.7788754,-0.001009702802861071
1743758792.7798512,-0.000996841112396055
1743758792.7808273,-0.0009895087468038495
1743758792.7818036,-0.00098361881378716
1743758792.7827795,-0.0009709975287513966
1743758792.7837553,-0.0009694348934612544
1743758792.7847314,-0.0009636651631591912
1743758792.7857075,-0.0009587368518595121
1743758792.7866833,-0.0009475579993992645
1743758792.7876592,-0.0009461155668237488
1743758792.7886355,-0.0009433509043873435
1743758792.7896116,-0.0009438317152458487
1743758792.7905874,-0.0009387832012315434
1743758792.7915633,-0.0009369801605121486
1743758792.7925394,-0.0009468367831115067
1743758792.7935154,-0.0009450337423921118
1743758792.7944913,-0.000939384214804675
1743758792.7954674,-0.0009401054310924328
1743758792.7964435,-0.0009399852283778065
1743758792.7974195,-0.0009441923233897277
1743758792.7983954,-0.0009453943505359909
1743758792.7993712,-0.0009475579993992645
1743758792.8003473,-0.0009421488772410803
1743758792.8013234,-0.0009381821876584118
1743758792.8022995,-0.000936379146939017
1743758792.8032753,-0.0009332538763587328
1743758792.8042514,-0.0009318114437832169
1743758792.8052275,-0.0009333740790733591
1743758792.8062034,-0.0009217144157546062
1743758792.8071792,-0.0009252002944787693
1743758792.8081553,-0.0009280851596298011
1743758792.8091316,-0.0009320518492124696
1743758792.8101075,-0.0009367397550828959
1743758792.8110833,-0.0009369801605121486
1743758792.8120594,-0.0009322922546417221
1743758792.8130355,-0.0009290467813468116
1743758792.8140113,-0.00092844576777368
1743758792.8149872,-0.0009271235379127904
1743758792.8159635,-0.0009267629297689115
1743758792.8169396,-0.0009304892139223274
1743758792.8179154,-0.0009333740790733591
1743758792.8188913,-0.0009349367143635011
1743758792.8198674,-0.0009297679976345694
1743758792.8208435,-0.0009289265786321853
1743758792.8218193,-0.0009282053623444274
1743758792.8227952,-0.0009334942817879853
1743758792.8237715,-0.000936379146939017
1743758792.8247476,-0.0009324124573563485
1743758792.8257234,-0.0009258013080519009
1743758792.8266993,-0.0009250800917641432
1743758792.8276753,-0.0009333740790733591
1743758792.8286514,-0.0009343357007903695
1743758792.8296273,-0.0009438317152458487
1743758792.8306034,-0.0009458751613944961
1743758792.8315794,-0.0009375811740852802
1743758792.8325555,-0.0009239982673325062
1743758792.8335314,-0.0009272437406274168
1743758792.8345072,-0.0009342154980757433
1743758792.8354833,-0.0009467165803968804
1743758792.8364596,-0.0009446731342482329
1743758792.8374355,-0.0009339750926464907
1743758792.8384113,-0.0009262821189104063
1743758792.8393874,-0.000927724551485922
1743758792.8403635,-0.0009342154980757433
1743758792.8413393,-0.0009261619161957799
1743758792.8423152,-0.0009209931994668483
1743758792.8432913,-0.0009220750238984851
1743758792.8442676,-0.0009233972537593746
1743758792.8452435,-0.0009213538076107272
1743758792.8462193,-0.0009244790781910116
1743758792.8471954,-0.0009267629297689115
1743758792.8481715,-0.0009279649569151747
1743758792.8491473,-0.0009308498220662064
1743758792.8501232,-0.0009302488084930748
1743758792.8510995,-0.0009357781333658855
1743758792.8520756,-0.0009322922546417221
1743758792.8530514,-0.0009348165116488748
1743758792.8540273,-0.0009351771197927539
1743758792.8550034,-0.000931450835639338
1743758792.8559794,-0.0009322922546417221
1743758792.8569553,-0.0009350569170781275
1743758792.8579314,-0.0009369801605121486
1743758792.8589075,-0.0009358983360805117
1743758792.8598835,-0.0009358983360805117
1743758792.8608594,-0.0009358983360805117
1743758792.8618352,-0.0009344559035049959
1743758792.8628113,-0.0009338548899318643
1743758792.8637874,-0.000928806375917559
1743758792.8647635,-0.0009155840773086639
1743758792.8657393,-0.0008995971162633637
1743758792.8667154,-0.000887216236656853
1743758792.8676915,-0.000872070694613937
1743758792.8686674,-0.0008586079905757893
1743758792.8696432,-0.0008471887326862892
1743758792.8706193,-0.0008364906910845467
1743758792.8715956,-0.0008340866367920204
1743758792.8725715,-0.000836610893799173
1743758792.8735473,-0.0008382937318039415
1743758792.8745234,-0.0008355290693675362
1743758792.8754995,-0.0008469483272570364
1743758792.8764753,-0.0008474291381155417
1743758792.8774512,-0.0008572857607148998
1743758792.8784275,-0.0008690656267482788
1743758792.8794036,-0.0008732727217602001
1743758792.8803794,-0.0008818071144986685
1743758792.8813553,-0.0008962314402538268
1743758792.8823314,-0.0009062082655678112
1743758792.8833075,-0.0009271235379127904
1743758792.8842833,-0.0009476782021138908
1743758792.8852592,-0.0009581358382863806
1743758792.8862355,-0.0009384225930876644
1743758792.8872116,-0.0009189497533182009
1743758792.8881874,-0.0008658201534533683
1743758792.8891633,-0.0008254320413389255
1743758792.8901393,-0.0008007904848405303
1743758792.8911154,-0.0007843227129367248
1743758792.8920913,-0.0007573973048604295
1743758792.8930674,-0.0007429729791052714
1743758792.8940434,-0.000732996153791287
1743758792.8950195,-0.0007004212181275548
1743758792.8959954,-0.0006426037123922959
1743758792.8969712,-0.0006120722228772111
1743758792.8979473,-0.0006266167513469956
1743758792.8989236,-0.000664961417312791
1743758792.8998995,-0.0006773422969193017
1743758792.9008753,-0.0006956131095425021
1743758792.9018514,-0.0007297506804963763
1743758792.9028275,-0.0007629266297332401
1743758792.9038033,-0.0007836014966489668
1743758792.9047792,-0.0007912944703850512
1743758792.9057553,-0.0007920156866728091
1743758792.9067316,-0.0007920156866728091
1743758792.9077075,-0.000787808591660888
1743758792.9086833,-0.0008646181263071051
1743758792.9096594,-0.0009685934744588701
1743758792.9106355,-0.0010597071321456193
1743758792.9116113,-0.0011354348423601994
1743758792.9125872,-0.0011641632911558895
1743758792.9135635,-0.0011938533616685902
1743758792.9145396,-0.0011455318703888103
1743758792.9155154,-0.001151542006120126
1743758792.9164913,-0.0011653653183021527
1743758792.9174674,-0.0011404833563745049
1743758792.9184434,-0.0010861517293634091
1743758792.9194193,-0.0010443211846734505
1743758792.9203954,-0.001028574629057403
1743758792.9213715,-0.001040715103234661
1743758792.9223475,-0.0010300170616329186
1743758792.9233234,-0.0010166745603093974
1743758792.9242992,-0.0009661894201663438
1743758792.9252753,-0.0009344559035049959
1743758792.9262514,-0.0009122184012991271
1743758792.9272275,-0.0008679838023166421
1743758792.9282033,-0.0008384139345185678
1743758792.9291794,-0.0007583589265774401
1743758792.9301555,-0.0006796261484972019
1743758792.9311314,-0.000714484935738834
1743758792.9321072,-0.0007536710207070137
1743758792.9330833,-0.0008705080593237948
1743758792.9340596,-0.0009952784771059128
1743758792.9350355,-0.0011039417311281042
1743758792.9360113,-0.0011683703861678108
1743758792.9369874,-0.001200224105543785
1743758792.9379635,-0.001147695519252084
1743758792.9389393,-0.0010139098978729922
1743758792.9399152,-0.0009226760374716167
1743758792.9408915,-0.0008301199472093519
1743758792.9418676,-0.0007658114948842718
1743758792.9428434,-0.0007320345320742765
1743758792.9438193,-0.0007416507492443819
1743758792.9447954,-0.0007563154804287927
1743758792.9457715,-0.000769657981752314
1743758792.9467473,-0.0007920156866728091
1743758792.9477232,-0.0008131713644470411
1743758792.9486995,-0.0008197825137514885
1743758792.9496756,-0.0008213451490416307
1743758792.9506514,-0.0008136521753055463
1743758792.9516273,-0.0008330048123603835
1743758792.9526033,-0.0009080113062872059
1743758792.9535794,-0.0009384225930876644
1743758792.9545553,-0.0009797723269191177
1743758792.9555314,-0.0010035724644151289
1743758792.9565074,-0.001008981586573313
1743758792.9574835,-0.0010121068571535973
1743758792.9584594,-0.0010005673965494707
1743758792.9594352,-0.000991191584808618
1743758792.9604113,-0.0009929946255280127
1743758792.9613876,-0.000993836044530397
1743758792.9623635,-0.0009962400988229234
1743758792.9633393,-0.0009853016517919284
1743758792.9643154,-0.000981695570353139
1743758792.9652915,-0.0009756854346218229
1743758792.9662673,-0.000970035907034386
1743758792.9672432,-0.0009708773260367703
1743758792.9682193,-0.0009660692174517175
1743758792.9691956,-0.0009574146219986226
1743758792.9701715,-0.000960179284435028
1743758792.9711473,-0.0009523661079843173
1743758792.9721234,-0.0009534479324159541
1743758792.9730995,-0.0009534479324159541
1743758792.9740753,-0.000947317593970012
1743758792.9750512,-0.0009528469188428225
1743758792.9760275,-0.0009509236754088015
1743758792.9770036,-0.0009606600952935333
1743758792.9779794,-0.0009622227305836753
1743758792.9789553,-0.000960179284435028
1743758792.9799314,-0.0009672712445979808
1743758792.9809074,-0.0009618621224397964
1743758792.9818833,-0.0009635449604445648
1743758792.9828594,-0.0009671510418833544
1743758792.9838355,-0.0009613813115812911
1743758792.9848115,-0.0009623429332983016
1743758792.9857874,-0.0009663096228809702
1743758792.9867632,-0.0009596984735765227
1743758792.9877393,-0.0009487600265455278
1743758792.9887154,-0.0009313306329247116
1743758792.9896915,-0.0009172669153134325
1743758792.9906673,-0.0009171467125988061
1743758792.9916434,-0.0009140214420185218
1743758792.9926195,-0.0009182285370304429
1743758792.9935954,-0.0009199113750352115
1743758792.9945712,-0.0009178679288865641
1743758792.9955473,-0.0009199113750352115
1743758792.9965236,-0.0009214740103253536
1743758792.9974995,-0.0009189497533182009
1743758792.9984753,-0.0009185891451743219
1743758792.9994514,-0.0009160648881671693
1743758793.0004275,-0.0009038042112752848
1743758793.0014033,-0.0009001981298364953
1743758793.0023792,-0.0008980344809732216
1743758793.0033555,-0.0009010395488388795
1743758793.0043316,-0.0008914233316687741
1743758793.0053074,-0.0008932263723881688
1743758793.0062833,-0.0008915435343834003
1743758793.0072594,-0.0008951496158221898
1743758793.0082355,-0.0008995971162633637
1743758793.0092113,-0.0009056072519946796
1743758793.0101871,-0.0009059678601385586
1743758793.0111635,-0.0009041648194191638
1743758793.0121396,-0.0009068092791409427
1743758793.0131154,-0.0009199113750352115
1743758793.0140913,-0.0009239982673325062
1743758793.0150673,-0.0009117375904406218
1743758793.0160434,-0.0008795232629207686
1743758793.0170195,-0.0008620938692999524
1743758793.0179954,-0.0008540402874199892
1743758793.0189714,-0.0008568049498563945
1743758793.0199475,-0.0008506746114104523
1743758793.0209234,-0.0008471887326862892
1743758793.0218992,-0.0008445442729645101
1743758793.0228753,-0.0008364906910845467
1743758793.0238516,-0.0008369715019430521
1743758793.0248275,-0.0008461069082546522
1743758793.0258033,-0.0008566847471417682
1743758793.0267794,-0.0008583675851465367
1743758793.0277555,-0.0008684646131751473
1743758793.0287313,-0.0008850525877935792
1743758793.0297072,-0.0009289265786321853
1743758793.0306833,-0.0009554913785646016
1743758793.0316596,-0.0009772480699119651
1743758793.0326355,-0.00098361881378716
1743758793.0336113,-0.000971959150468407
1743758793.0345874,-0.0009641459740176964
1743758793.0355635,-0.0009623429332983016
1743758793.0365393,-0.0009438317152458487
1743758793.0375152,-0.0009276043487712959
1743758793.0384915,-0.0009283255650590537
1743758793.0394676,-0.000937941782229159
1743758793.0404434,-0.000946956985826133
1743758793.0414193,-0.0009471973912553856
1743758793.0423954,-0.0009378215795145329
1743758793.0433714,-0.0009369801605121486
1743758793.0443473,-0.0009320518492124696
1743758793.0453234,-0.0009280851596298011
1743758793.0462995,-0.0009236376591886273
1743758793.0472755,-0.0009077709008579534
1743758793.0482514,-0.0009017607651266374
1743758793.0492272,-0.000901640562412011
1743758793.0502033,-0.0008961112375392004
1743758793.0511794,-0.000897072859256211
1743758793.0521555,-0.0008926253588150372
1743758793.0531313,-0.0008866152230837214
1743758793.0541074,-0.0008755565733381001
1743758793.0550835,-0.0008652191398802367
1743758793.0560594,-0.0008701474511799158
1743758793.0570352,-0.0008771192086282423
1743758793.0580113,-0.0008923849533857847
1743758793.0589876,-0.0008895000882347529
1743758793.0599635,-0.0009038042112752848
1743758793.0609393,-0.0009060880628531848
1743758793.0619154,-0.0008926253588150372
1743758793.0628915,-0.000886495020369095
1743758793.0638673,-0.0008858940067959634
1743758793.0648432,-0.0008803646819231528
1743758793.0658195,-0.0008696666403214104
1743758793.0667956,-0.0008661807615972473
1743758793.0677714,-0.0008664211670264999
1743758793.0687473,-0.0008564443417125155
1743758793.0697234,-0.0008471887326862892
1743758793.0706995,-0.0008348078530797783
1743758793.0716753,-0.0008269946766290676
1743758793.0726511,-0.0008244704196219149
1743758793.0736275,-0.0008203835273246202
1743758793.0746036,-0.0008259128521974308
1743758793.0755794,-0.0008172582567443358
1743758793.0765553,-0.0008077622422888567
1743758793.0775313,-0.000802954133703804
1743758793.0785074,-0.0008055985934255831
1743758793.0794835,-0.0008077622422888567
1743758793.0804594,-0.0008344472449358995
1743758793.0814354,-0.0008439432593913785
1743758793.0824115,-0.0008307209607824835
1743758793.0833874,-0.0007834812939343405
1743758793.0843632,-0.000740929532956624
1743758793.0853393,-0.000717129395460613
1743758793.0863156,-0.0007001808126983022
1743758793.0872915,-0.0006838332435091229
1743758793.0882673,-0.0006793857430679491
1743758793.0892434,-0.0006911656091013284
1743758793.0902195,-0.0007297506804963763
1743758793.0911953,-0.0007837216993635932
1743758793.0921712,-0.0007826398749319563
1743758793.0931473,-0.0007867267672292511
1743758793.0941236,-0.0007962227816847301
1743758793.0950994,-0.00081353197259092
1743758793.0960753,-0.0008160562295980727
1743758793.0970514,-0.000818820892034478
1743758793.0980275,-0.0008527180575590997
1743758793.0990033,-0.0008505544086958259
1743758793.0999792,-0.0008700272484652895
1743758793.1009555,-0.0009065688737116902
1743758793.1019316,-0.0009308498220662064
1743758793.1029074,-0.0009497216482625383
1743758793.1038833,-0.0009120981985845008
1743758793.1048594,-0.000894067791390553
1743758793.1058354,-0.0008735131271894527
1743758793.1068113,-0.0008381735290893152
1743758793.1077874,-0.000808603661291241
1743758793.1087635,-0.0007938187273922038
1743758793.1097395,-0.000769657981752314
1743758793.1107154,-0.0007553538587117821
1743758793.1116912,-0.0007530700071338821
1743758793.1126673,-0.0007548730478532769
1743758793.1136434,-0.0007706196034693245
1743758793.1146195,-0.000810887512869141
1743758793.1155953,-0.0008592090041489209
1743758793.1165714,-0.0008952698185368162
1743758793.1175475,-0.0008983950891171005
1743758793.1185234,-0.000870267653894542
1743758793.1194992,-0.0008664211670264999
1743758793.1204753,-0.0008647383290217315
1743758793.1214516,-0.0008516362331274629
1743758793.1224275,-0.0008328846096457573
1743758793.1234033,-0.0008284371092045834
1743758793.1243794,-0.0008261532576266834
1743758793.1253555,-0.0007968237952578617
1743758793.1263313,-0.0007962227816847301
1743758793.1273072,-0.0008231481897610255
1743758793.1282835,-0.0008641373154485999
1743758793.1292596,-0.0008890192773762477
1743758793.1302354,-0.0009452741478213645
1743758793.1312113,-0.0009774884753412179
1743758793.1321874,-0.001004774491561392
1743758793.1331635,-0.0010200402363189343
1743758793.1341393,-0.001019559425460429
1743758793.1351151,-0.0010000865856909654
1743758793.1360915,-0.000977969286199723
1743758793.1370676,-0.0009518852971258121
1743758793.1380434,-0.0009342154980757433
1743758793.1390193,-0.0009214740103253536
1743758793.1399953,-0.0009270033351981643
1743758793.1409714,-0.0009147426583062798
1743758793.1419475,-0.0009051264411361744
1743758793.1429234,-0.0008867354257983477
1743758793.1438994,-0.0008640171127339735
1743758793.1448755,-0.0008580069770026577
1743758793.1458514,-0.0008485109625471785
1743758793.1468272,-0.000829759339065473
1743758793.1478033,-0.0008114885264422726
1743758793.1487796,-0.0008013914984136618
1743758793.1497555,-0.0007888904160925249
1743758793.1507313,-0.0007946601463945882
1743758793.1517074,-0.0008059592015694619
1743758793.1526835,-0.0008030743364184304
1743758793.1536593,-0.0008177390676028412
1743758793.1546352,-0.0008406977860964679
1743758793.1556113,-0.0008503140032665733
1743758793.1565876,-0.0008314421770702413
1743758793.1575634,-0.000836610893799173
1743758793.1585393,-0.0008729121136163211
1743758793.1595154,-0.0008945486022490582
1743758793.1604915,-0.0009161850908817956
1743758793.1614673,-0.0009487600265455278
1743758793.1624432,-0.0009639055685884438
1743758793.1634195,-0.0009421488772410803
1743758793.1643956,-0.0009195507668913324
1743758793.1653714,-0.0009039244139899112
1743758793.1663473,-0.0008941879941051794
1743758793.1673234,-0.0008810858982109107
1743758793.1682994,-0.0008776000194867475
1743758793.1692753,-0.0008529584629883524
1743758793.1702514,-0.0008314421770702413
1743758793.1712275,-0.0008147339997371831
1743758793.1722035,-0.0008054783907109567
1743758793.1731794,-0.0008030743364184304
1743758793.1741552,-0.000803675349991562
1743758793.1751313,-0.00081124812101302
1743758793.1761074,-0.0008241098114780361
1743758793.1770835,-0.0008439432593913785
1743758793.1780593,-0.0008684646131751473
1743758793.1790354,-0.000873633329904079
1743758793.1800115,-0.0008761575869112317
1743758793.1809874,-0.0008684646131751473
1743758793.1819632,-0.0008681040050312684
1743758793.1829393,-0.0008837303579326897
1743758793.1839156,-0.0008857738040813371
1743758793.1848915,-0.0008839707633619423
1743758793.1858673,-0.0008760373841966053
1743758793.1868434,-0.0008827687362156792
1743758793.1878195,-0.0008888990746616214
1743758793.1887953,-0.0008955102239660689
1743758793.1897712,-0.0009058476574239322
1743758793.1907475,-0.0009184689424596957
1743758793.1917236,-0.0009265225243396589
1743758793.1926994,-0.0009094537388627217
1743758793.1936753,-0.0008917839398126531
1743758793.1946514,-0.0008798838710646475
1743758793.1956275,-0.0008676231941727631
1743758793.1966033,-0.0008659403561679947
1743758793.1975791,-0.0008827687362156792
1743758793.1985555,-0.0008880576556592372
1743758793.1995316,-0.0009060880628531848
1743758793.2005074,-0.0009289265786321853
1743758793.2014832,-0.0009202719831790904
1743758793.2024593,-0.0009120981985845008
1743758793.2034354,-0.0009134204284453902
1743758793.2044115,-0.0009066890764263164
1743758793.2053874,-0.0008964718456830794
1743758793.2063634,-0.0008821677226425476
1743758793.2073395,-0.0008808454927816581
1743758793.2083154,-0.0008743545461918369
1743758793.2092912,-0.0008563241389978891
1743758793.2102673,-0.0008388947453770732
1743758793.2112436,-0.0008327644069311309
1743758793.2122195,-0.0008330048123603835
1743758793.2131953,-0.0008325240015018783
1743758793.2141714,-0.0008406977860964679
1743758793.2151475,-0.000851756435842089
1743758793.2161233,-0.0008605312340098104
1743758793.2170992,-0.0008691858294629052
1743758793.2180753,-0.0008843313715058213
1743758793.2190516,-0.0008782010330598791
1743758793.2200274,-0.0008735131271894527
1743758793.2210033,-0.0008725515054724422
1743758793.2219794,-0.0008671423833142578
1743758793.2229555,-0.0008733929244748264
1743758793.2239313,-0.0008751959651942211
1743758793.2249072,-0.0008777202222013739
1743758793.2258835,-0.0008757969787673527
1743758793.2268596,-0.0008765181950551107
1743758793.2278354,-0.0008742343434772105
1743758793.2288113,-0.0008726717081870686
1743758793.2297873,-0.0008723111000431895
1743758793.2307634,-0.0008768788031989896
1743758793.2317393,-0.0008774798167721212
1743758793.2327154,-0.0008777202222013739
1743758793.2336915,-0.0008790424520622634
1743758793.2346675,-0.0008782010330598791
1743758793.2356434,-0.0008803646819231528
1743758793.2366192,-0.0008765181950551107
1743758793.2375953,-0.0008854131959374582
1743758793.2385714,-0.0008779606276306264
1743758793.2395475,-0.0008707484647530474
1743758793.2405233,-0.0008575261661441523
1743758793.2414994,-0.0008584877878611629
1743758793.2424755,-0.0008500735978373207
1743758793.2434514,-0.0008425008268158627
1743758793.2444272,-0.000836610893799173
1743758793.2454033,-0.0008299997444947255
1743758793.2463796,-0.000833966434077394
1743758793.2473555,-0.0008326442042165045
1743758793.2483313,-0.0008390149480916993
1743758793.2493074,-0.0008438230566767522
1743758793.2502835,-0.0008500735978373207
1743758793.2512593,-0.0008566847471417682
1743758793.2522352,-0.0008760373841966053
1743758793.2532115,-0.0008949092103929373
1743758793.2541876,-0.0009011597515535059
1743758793.2551634,-0.0009070496845701954
1743758793.2561393,-0.0009060880628531848
1743758793.2571154,-0.0009094537388627217
1743758793.2580914,-0.0009044052248484164
1743758793.2590673,-0.0008983950891171005
1743758793.2600434,-0.0008941879941051794
1743758793.2610195,-0.000888778871946995
1743758793.2619956,-0.0008923849533857847
1743758793.2629714,-0.0008892596828055004
1743758793.2639472,-0.000886855628512974
1743758793.2649233,-0.0008876970475153582
1743758793.2658994,-0.000886855628512974
1743758793.2668755,-0.0008870960339422266
1743758793.2678514,-0.0008843313715058213
1743758793.2688274,-0.0008794030602061422
1743758793.2698035,-0.0008816869117840424
1743758793.2707794,-0.0008845717769350739
1743758793.2717552,-0.0008802444792085266
1743758793.2727313,-0.0008861344122252161
1743758793.2737076,-0.0009004385352657479
1743758793.2746835,-0.0009135406311600166
1743758793.2756593,-0.0009225558347569905
1743758793.2766354,-0.0009230366456154958
1743758793.2776115,-0.0009265225243396589
1743758793.2785873,-0.0009249598890495168
1743758793.2795632,-0.0009232770510447483
1743758793.2805393,-0.0009075304954287007
1743758793.2815156,-0.0008873364393714793
1743758793.2824914,-0.0008628150855877104
1743758793.2834673,-0.0008500735978373207
1743758793.2844434,-0.0008388947453770732
1743758793.2854195,-0.0008360098802260414
1743758793.2863953,-0.0008378129209454362
1743758793.2873712,-0.000842621029530489
1743758793.2883475,-0.0008473089354009153
1743758793.2893236,-0.0008584877878611629
1743758793.2902994,-0.0008568049498563945
1743758793.2912753,-0.0008507948141250786
1743758793.2922513,-0.0008388947453770732
1743758793.2932274,-0.0008321633933579993
1743758793.2942033,-0.0008217057571855095
1743758793.2951794,-0.0008226673789025202
1743758793.2961555,-0.0008137723780201727
1743758793.2971315,-0.0007997086604088935
1743758793.2981074,-0.0007864863617999986
1743758793.2990832,-0.0007754277120543772
1743758793.3000593,-0.0007644892650233823
1743758793.3010354,-0.0007571568994311769
1743758793.3020115,-0.000751867979987619
1743758793.3029873,-0.0007674943328890402
1743758793.3039634,-0.0007781923744907826
1743758793.3049395,-0.0008005500794112777
1743758793.3059154,-0.0008082430531473621
1743758793.3068912,-0.0008053581879963304
1743758793.3078673,-0.0008117289318715252
1743758793.3088436,-0.0008132915671616674
1743758793.3098195,-0.0008156956214541937
1743758793.3107953,-0.0008315623797848677
1743758793.3117714,-0.0008382937318039415
1743758793.3127475,-0.0008606514367244366
1743758793.3137233,-0.0008832495470741845
1743758793.3146992,-0.0009041648194191638
1743758793.3156755,-0.0009111365768674902
1743758793.3166516,-0.0009114971850113692
1743758793.3176274,-0.0009149830637355323
1743758793.3186033,-0.0009286861732029326
1743758793.3195794,-0.0009461155668237488
1743758793.3205554,-0.0009476782021138908
1743758793.3215313,-0.0009402256338070592
1743758793.3225074,-0.0009336144845026117
1743758793.3234835,-0.000922796240186243
1743758793.3244596,-0.0008944283995344321
1743758793.3254354,-0.0008725515054724422
1743758793.3264112,-0.000853198868417605
1743758793.3273873,-0.0008434624485328732
1743758793.3283634,-0.0008224269734732675
1743758793.3293395,-0.000811969337300778
1743758793.3303154,-0.0008031945391330566
1743758793.3312914,-0.0007912944703850512
1743758793.3322675,-0.0007817984559295721
1743758793.3332434,-0.00078480352379523
1743758793.3342192,-0.0007844429156513511
1743758793.3351953,-0.0007912944703850512
1743758793.3361716,-0.0007911742676704248
1743758793.3371475,-0.0007891308215217774
1743758793.3381233,-0.0007880489970901406
1743758793.3390994,-0.0007956217681115986
1743758793.3400755,-0.0007981460251187513
1743758793.3410513,-0.0008001894712673987
1743758793.3420272,-0.0007979056196894987
1743758793.3430033,-0.0007964631871139829
1743758793.3439796,-0.0007899722405241617
1743758793.3449554,-0.0007897318350949091
1743758793.3459313,-0.0007951409572530934
1743758793.3469074,-0.0008028339309891778
1743758793.3478835,-0.000813892580734799
1743758793.3488593,-0.0008160562295980727
1743758793.3498352,-0.0008283169064899572
1743758793.3508115,-0.0008431018403889943
1743758793.3517876,-0.0008587281932904155
1743758793.3527634,-0.0008800040737792738
1743758793.3537393,-0.0009040446167045375
1743758793.3547153,-0.0009058476574239322
1743758793.3556914,-0.0009046456302776691
1743758793.3566673,-0.0008964718456830794
1743758793.3576434,-0.0008754363706234737
1743758793.3586195,-0.0008780808303452528
1743758793.3595955,-0.0008876970475153582
1743758793.3605714,-0.0009074102927140743
1743758793.3615472,-0.0009196709696059588
1743758793.3625233,-0.0009200315777498379
1743758793.3634994,-0.0009344559035049959
1743758793.3644755,-0.0009410670528094434
1743758793.3654513,-0.0009444327288189803
1743758793.3664274,-0.0009502024591210435
1743758793.3674035,-0.0009445529315336066
1743758793.3683794,-0.0009271235379127904
1743758793.3693552,-0.000911857793155248
1743758793.3703313,-0.00090428502213379
1743758793.3713076,-0.0008876970475153582
1743758793.3722835,-0.0008612524502975683
1743758793.3732593,-0.0008398563670940837
1743758793.3742354,-0.0008118491345861516
1743758793.3752115,-0.0007914146730996775
1743758793.3761873,-0.0007702589953254456
1743758793.3771632,-0.0007535508179923873
1743758793.3781395,-0.0007593205482944506
1743758793.3791156,-0.000787447983517009
1743758793.3800914,-0.0008034349445623093
1743758793.3810673,-0.0008114885264422726
1743758793.3820434,-0.0008194219056076096
1743758793.3830194,-0.0008400967725233363
1743758793.3839953,-0.0008529584629883524
1743758793.3849714,-0.000868344410460521
1743758793.3859475,-0.000870628262038421
1743758793.3869236,-0.0008882980610884898
1743758793.3878994,-0.0008973132646854636
1743758793.3888752,-0.0008963516429684532
1743758793.3898513,-0.0009021213732705165
1743758793.3908274,-0.0009193103614620799
1743758793.3918035,-0.0009233972537593746
1743758793.3927794,-0.0009172669153134325
1743758793.3937554,-0.0009077709008579534
1743758793.3947315,-0.0009051264411361744
1743758793.3957074,-0.0009135406311600166
1743758793.3966832,-0.0009088527252895901
1743758793.3976593,-0.0009071698872848218
1743758793.3986356,-0.0008944283995344321
1743758793.3996115,-0.0008962314402538268
1743758793.4005873,-0.0008840909660765687
1743758793.4015634,-0.0008676231941727631
1743758793.4025395,-0.0008583675851465367
1743758793.4035153,-0.0008440634621060048
1743758793.4044912,-0.0008143733915933043
1743758793.4054675,-0.0007766297392006404
1743758793.4064436,-0.000742492168246766
1743758793.4074194,-0.000714484935738834
1743758793.4083953,-0.0006975363529765232
1743758793.4093714,-0.0006918868253890862
1743758793.4103475,-0.0006792655403533228
1743758793.4113233,-0.0006734958100512597
1743758793.4122992,-0.0006902039873843178
1743758793.4132755,-0.0006855160815138914
1743758793.4142516,-0.0006857564869431439
1743758793.4152274,-0.0006922474335329652
1743758793.4162033,-0.0007054697321418601
1743758793.4171793,-0.0007259041936283342
