index,ECG
1742986056.7809448,-0.0028156283874068723
1742986056.782898,-0.0028156283874068723
1742986056.7848508,-0.0028156283874068723
1742986056.786804,-0.0028156283874068723
1742986056.788757,-0.0028156283874068723
1742986056.79071,-0.0028146667656898613
1742986056.7926629,-0.0027925494661986193
1742986056.7946157,-0.0027723554101413976
1742986056.7965689,-0.002780048383877482
1742986056.7985218,-0.002805050548519756
1742986056.800475,-0.0027867797358965556
1742986056.802428,-0.0027771635187264503
1742986056.804381,-0.0028242829828599675
1742986056.806334,-0.002843515417200178
1742986056.808287,-0.0028396689303321356
1742986056.81024,-0.0027954343313496507
1742986056.8121927,-0.0027925494661986193
1742986056.8141458,-0.002782933249028514
1742986056.816099,-0.0028329375783130617
1742986056.8180518,-0.0028483235257852307
1742986056.820005,-0.0028848651510316316
1742986056.8219578,-0.00282909109144502
1742986056.823911,-0.0028088970353877985
1742986056.8258638,-0.002866594338408431
1742986056.827817,-0.002949293806071338
1742986056.82977,-0.0029194835328440107
1742986056.831723,-0.0029694878621285593
1742986056.8336759,-0.0029675646186945377
1742986056.8356287,-0.002991605161619802
1742986056.8375819,-0.002956986779807422
1742986056.8395348,-0.002952178671222369
1742986056.841488,-0.0029800657010156757
1742986056.843441,-0.0030108375959600124
1742986056.845394,-0.0029964132702048544
1742986056.847347,-0.0029992981353558863
1742986056.8493,-0.002890634881333695
1742986056.851253,-0.0028502467692192515
1742986056.853206,-0.0027781251404434613
1742986056.8551588,-0.0027175429722717964
1742986056.8571117,-0.0026810013470253964
1742986056.8590648,-0.002659845669251164
1742986056.861018,-0.0026444597217789956
1742986056.8629708,-0.002615611070268679
1742986056.864924,-0.002691579185912512
1742986056.8668768,-0.002707926755101691
1742986056.86883,-0.0027281208111589127
1742986056.870783,-0.0027483148672161344
1742986056.872736,-0.00275889270610325
1742986056.874689,-0.0027646624364053136
1742986056.8766418,-0.002773317031858408
1742986056.8785949,-0.002788702979330577
1742986056.8805478,-0.002788702979330577
1742986056.882501,-0.0027810100055944923
1742986056.8844538,-0.002767547301556345
1742986056.886407,-0.0027492764889331446
1742986056.88836,-0.0027646624364053136
1742986056.890313,-0.002736775406612008
1742986056.892266,-0.0027723554101413976
1742986056.894219,-0.0027771635187264503
1742986056.8961718,-0.002780048383877482
1742986056.8981247,-0.0027521613540841764
1742986056.9000778,-0.002797357574783672
1742986056.902031,-0.0028156283874068723
1742986056.9039838,-0.0028848651510316316
1742986056.905937,-0.002856016499521315
1742986056.9078898,-0.0028925581247677156
1742986056.909843,-0.002914675424258958
1742986056.9117959,-0.0029810273227326854
1742986056.913749,-0.0028867883944656524
1742986056.915702,-0.002866594338408431
1742986056.9176548,-0.002890634881333695
1742986056.9196079,-0.002928138128297106
1742986056.9215608,-0.003004106243940939
1742986056.923514,-0.003083920846452814
1742986056.9254668,-0.00309546030705694
1742986056.92742,-0.0030877673333208557
1742986056.929373,-0.0030762278727167296
1742986056.931326,-0.00305988030352755
1742986056.933279,-0.002997374891921865
1742986056.935232,-0.002933907858599169
1742986056.9371848,-0.0028839035293146205
1742986056.9391377,-0.0028675559601254418
1742986056.9410908,-0.00281178190053883
1742986056.943044,-0.0027271591894419025
1742986056.9449968,-0.00275889270610325
1742986056.94695,-0.0027877413576135666
1742986056.9489028,-0.0026906175641955017
1742986056.950856,-0.002645421343496006
1742986056.9528089,-0.002580992688456299
1742986056.954762,-0.0025694532278521726
1742986056.956715,-0.002605033231381563
1742986056.9586678,-0.002542527819775878
1742986056.9606209,-0.00256368349755011
1742986056.9625738,-0.002625227287438784
1742986056.964527,-0.0027261975677248915
1742986056.9664798,-0.002702157024799628
1742986056.968433,-0.0026867710773274592
1742986056.970386,-0.0026906175641955017
1742986056.972339,-0.0026713851298552902
1742986056.974292,-0.0027656240581223237
1742986056.976245,-0.002770432166707377
1742986056.978198,-0.002781971627311503
1742986056.9801507,-0.002771393788424387
1742986056.9821038,-0.0028069737919537772
1742986056.984057,-0.0028271678480109984
1742986056.9860098,-0.0029098673156739054
1742986056.987963,-0.002939677588901232
1742986056.9899158,-0.0029925667833368124
1742986056.991869,-0.0030906521984718875
1742986056.9938219,-0.0031262322020012777
1742986056.995775,-0.003120462471699215
1742986056.997728,-0.00307718949443374
1742986056.999681,-0.0030444943560553814
1742986057.001634,-0.002965641375260517
1742986057.0035868,-0.0028829419075976103
1742986057.00554,-0.002828129469728009
1742986057.0074928,-0.0027983191965006825
1742986057.009446,-0.002773317031858408
1742986057.011399,-0.002783894870745524
1742986057.013352,-0.0028377456868981144
1742986057.015305,-0.0028954429899187475
1742986057.017258,-0.0029646797535435067
1742986057.019211,-0.0029925667833368124
1742986057.0211637,-0.0029242916414290634
1742986057.0231168,-0.0028675559601254418
1742986057.0250697,-0.0028185132525579038
1742986057.0270228,-0.0027858181141795454
1742986057.028976,-0.0027175429722717964
1742986057.0309289,-0.0026098413399666155
1742986057.032882,-0.0025252186288696877
1742986057.0348349,-0.0024915618687743188
1742986057.036788,-0.0024800224081701927
1742986057.0387409,-0.0025319499808887616
1742986057.040694,-0.0026550375606661115
1742986057.042647,-0.0027098499985357123
1742986057.0445998,-0.00279351108791563
1742986057.046553,-0.002820436495991925
1742986057.0485058,-0.002877172177295547
1742986057.050459,-0.0028781337990125572
1742986057.0524118,-0.002856016499521315
1742986057.054365,-0.002796395953066661
1742986057.056318,-0.002771393788424387
1742986057.058271,-0.002753122975801187
1742986057.060224,-0.0027502381106501547
1742986057.0621767,-0.0027579310843862397
1742986057.0641298,-0.0027762018970094397
1742986057.0660827,-0.002807935413670788
1742986057.0680358,-0.0028108202788218197
1742986057.069989,-0.002817551630840893
1742986057.0719419,-0.0027790867621604715
1742986057.073895,-0.0028156283874068723
1742986057.0758479,-0.0027771635187264503
1742986057.077801,-0.002828129469728009
1742986057.0797539,-0.0028964046116357577
1742986057.081707,-0.0029223683979950426
1742986057.08366,-0.0029579484015244324
1742986057.0856128,-0.0029877586747517598
1742986057.087566,-0.0030329548954512553
1742986057.0895188,-0.0030156457045450655
1742986057.091472,-0.002975257592430622
1742986057.0934248,-0.0028502467692192515
1742986057.095378,-0.00272331270257386
1742986057.097331,-0.002708888376818702
1742986057.099284,-0.0027406218934800494
1742986057.101237,-0.0027040802682336495
1742986057.10319,-0.0026983105379315858
1742986057.1051428,-0.0027175429722717964
1742986057.1070957,-0.002722351080856849
1742986057.1090488,-0.0027348521631779866
1742986057.111002,-0.0027271591894419025
1742986057.1129549,-0.0028396689303321356
1742986057.114908,-0.0028733256904275046
1742986057.1168609,-0.0028973662333527683
1742986057.118814,-0.0028502467692192515
1742986057.1207669,-0.0028300527131620303
1742986057.12272,-0.0028069737919537772
1742986057.1246731,-0.0028012040616517144
1742986057.1266258,-0.002771393788424387
1742986057.128579,-0.0027483148672161344
1742986057.1305318,-0.002781971627311503
1742986057.132485,-0.0029185219111270005
1742986057.1344378,-0.0030175689479790863
1742986057.136391,-0.0030329548954512553
1742986057.138344,-0.0029800657010156757
1742986057.140297,-0.0029685262404115487
1742986057.14225,-0.002856016499521315
1742986057.144203,-0.0027617775712542817
1742986057.1461558,-0.0027204278374228282
1742986057.1481087,-0.002780048383877482
1742986057.1500618,-0.002871402446993484
1742986057.1520147,-0.0029444856974862846
1742986057.1539679,-0.0030194921914131075
1742986057.155921,-0.0030214154348471283
1742986057.1578739,-0.003048340842923424
1742986057.159827,-0.002881018664163589
1742986057.1617799,-0.0028598629863893573
1742986057.163733,-0.002685809455610449
1742986057.1656861,-0.0026810013470253964
1742986057.1676388,-0.002654075938949101
1742986057.169592,-0.002659845669251164
1742986057.1715448,-0.002605033231381563
1742986057.173498,-0.002533873224322783
1742986057.1754508,-0.0025896472839093943
1742986057.177404,-0.0026319586394578584
1742986057.1793568,-0.0026569608041001323
1742986057.18131,-0.0026838862121764274
1742986057.183263,-0.0027338905414609764
1742986057.185216,-0.0028252446045769776
1742986057.1871688,-0.0028589013646723466
1742986057.1891217,-0.002931984615165148
1742986057.1910748,-0.0029069824505228736
1742986057.1930277,-0.002891596503050705
1742986057.1949809,-0.0028396689303321356
1742986057.196934,-0.0028069737919537772
1742986057.1988869,-0.00286563271669142
1742986057.20084,-0.002977180835864644
1742986057.202793,-0.0030935370636229194
1742986057.204746,-0.003105076524227046
1742986057.206699,-0.0031108462545291087
1742986057.2086518,-0.003234895456023469
1742986057.210605,-0.0033185565454033864
1742986057.2125578,-0.003298362489346165
1742986057.214511,-0.0032137397782492374
1742986057.2164638,-0.003114692741397151
1742986057.218417,-0.0029646797535435067
1742986057.2203698,-0.0028262062262939883
1742986057.222323,-0.0026358051263259004
1742986057.224276,-0.0024857921384722555
1742986057.226229,-0.0025886856621923837
1742986057.228182,-0.002817551630840893
1742986057.2301347,-0.0029348694803161793
1742986057.2320879,-0.0029598716449584536
1742986057.2340407,-0.0029541019146563908
1742986057.2359939,-0.0028271678480109984
1742986057.237947,-0.0026838862121764274
1742986057.2398999,-0.0026348435046088903
1742986057.241853,-0.0024617515955469922
1742986057.243806,-0.002398284562224296
1742986057.245759,-0.002398284562224296
1742986057.247712,-0.002445404026357813
1742986057.249665,-0.0025406045763418567
1742986057.251618,-0.002661768912685185
1742986057.2535708,-0.0027281208111589127
1742986057.255524,-0.002738698650046029
1742986057.2574768,-0.0027406218934800494
1742986057.25943,-0.002751199732367166
1742986057.2613828,-0.002817551630840893
1742986057.263336,-0.0028531316343702834
1742986057.265289,-0.0028377456868981144
1742986057.267242,-0.002890634881333695
1742986057.269195,-0.0029194835328440107
1742986057.2711477,-0.002975257592430622
1742986057.2731009,-0.0030618035469615716
1742986057.2750537,-0.003085844089886835
1742986057.2770069,-0.003004106243940939
1742986057.27896,-0.003100268415641993
1742986057.2809129,-0.0032714370812698696
1742986057.282866,-0.0034176035822554725
1742986057.284819,-0.003540691162032822
1742986057.286772,-0.0035012646716353897
1742986057.288725,-0.0034368360165956836
1742986057.290678,-0.003241626808042543
1742986057.2926307,-0.0029358311020331903
1742986057.2945838,-0.0025521440369459833
1742986057.296537,-0.0023146234728443787
1742986057.2984898,-0.00213960832034846
1742986057.300443,-0.002211729949124251
1742986057.3023958,-0.0023530883415248008
1742986057.304349,-0.002320393203146442
1742986057.306302,-0.0024973315990763816
1742986057.308255,-0.00279447270963264
1742986057.310208,-0.0034281814211425884
1742986057.3121607,-0.0037089749625096673
1742986057.3141139,-0.003773403617549374
1742986057.3160667,-0.0035301133231457056
1742986057.3180199,-0.0031473878797755096
1742986057.3199728,-0.002708888376818702
1742986057.3219259,-0.0023578964501098534
1742986057.323879,-0.0021992288668031133
1742986057.325832,-0.0022751969824469464
1742986057.327785,-0.0024646364606980237
1742986057.329738,-0.002639651613193943
1742986057.331691,-0.0027858181141795454
1742986057.3336437,-0.0030906521984718875
1742986057.3355968,-0.00332432627570545
1742986057.33755,-0.003701281988773583
1742986057.3395028,-0.00357242467869417
1742986057.341456,-0.003245473294910585
1742986057.3434088,-0.002856016499521315
1742986057.345362,-0.0025444510632098988
1742986057.3473148,-0.0023790521278840853
1742986057.349268,-0.002590608905626405
1742986057.351221,-0.002989681918185781
1742986057.353174,-0.0035339598100137485
1742986057.3551269,-0.0040147706685190205
1742986057.3570797,-0.004162860412938644
1742986057.3590329,-0.003808021999361753
1742986057.3609858,-0.00332432627570545
1742986057.362939,-0.0024886770036232873
1742986057.364892,-0.0021232607511592807
1742986057.366845,-0.001985748845626773
1742986057.368798,-0.0019232434340210873
1742986057.370751,-0.0020896039910639117
1742986057.372704,-0.002226154274879409
1742986057.374657,-0.002392514831922233
1742986057.3766098,-0.0025886856621923837
1742986057.378563,-0.0033877933090281456
1742986057.3805158,-0.003929186335705082
1742986057.382469,-0.0039695744478195245
1742986057.3844218,-0.003639738198884908
1742986057.386375,-0.0031973922090600577
1742986057.3883278,-0.002636766748042911
1742986057.390281,-0.0018905482956427292
1742986057.392234,-0.0020367147966283317
1742986057.394187,-0.002233847248615493
1742986057.3961399,-0.00235212671980779
1742986057.3980927,-0.0024540586218109077
1742986057.4000459,-0.0025117559248315404
1742986057.4019988,-0.0026348435046088903
1742986057.403952,-0.002725235946007881
1742986057.405905,-0.0028358224434640936
1742986057.407858,-0.00291756028940999
1742986057.409811,-0.003020453813130118
1742986057.411764,-0.0031156543631141614
1742986057.413717,-0.0031560424752286047
1742986057.41567,-0.003045455977772392
1742986057.4176228,-0.002989681918185781
1742986057.4195757,-0.0028617862298233785
1742986057.4215288,-0.0028675559601254418
1742986057.423482,-0.0029098673156739054
1742986057.4254348,-0.002902174341937821
1742986057.427388,-0.0027281208111589127
1742986057.4293408,-0.0025665683627011412
1742986057.431294,-0.002535796467756804
1742986057.433247,-0.0026377283697599217
1742986057.4352,-0.0029473705626373164
1742986057.4371529,-0.0032647057292507957
1742986057.4391057,-0.003616659277676655
1742986057.4410589,-0.0038012906473426796
1742986057.4430118,-0.0036743565806972877
1742986057.444965,-0.0031243089585672565
1742986057.4469178,-0.0025406045763418567
1742986057.448871,-0.0018732391047365394
1742986057.450824,-0.0019088191082659294
1742986057.452777,-0.0022434634657855987
1742986057.45473,-0.0023675126672799587
1742986057.456683,-0.0024944467339253506
1742986057.4586358,-0.002558875388965057
1742986057.4605887,-0.0026954256727805543
1742986057.4625418,-0.0027877413576135666
1742986057.464495,-0.002972372727279591
1742986057.4664478,-0.0030637267903955924
1742986057.468401,-0.0030637267903955924
1742986057.4703538,-0.002937754345467211
1742986057.472307,-0.0028733256904275046
1742986057.4742599,-0.0027069651333846804
1742986057.476213,-0.002736775406612008
1742986057.478166,-0.002638689991476932
1742986057.4801188,-0.0026521526955150796
1742986057.4820719,-0.002626188909155795
1742986057.4840248,-0.002696387294497565
1742986057.485978,-0.002868517581842452
1742986057.4879308,-0.0031271938237182884
1742986057.489884,-0.0032877846504590492
1742986057.491837,-0.003227202482287385
1742986057.49379,-0.0030473792212064132
1742986057.495743,-0.002685809455610449
1742986057.497696,-0.002403092670809349
1742986057.499649,-0.0024021310490923383
1742986057.5016017,-0.002509832681397519
1742986057.5035548,-0.002661768912685185
1742986057.505508,-0.0027281208111589127
1742986057.5074608,-0.0027915878444816082
1742986057.509414,-0.0028406305520491462
1742986057.5113668,-0.0028704408252764727
1742986057.51332,-0.0028589013646723466
1742986057.5152729,-0.0029329462368821585
1742986057.517226,-0.0032214327519853214
1742986057.519179,-0.0032137397782492374
1742986057.5211318,-0.003081997603018793
1742986057.5230849,-0.0027992808182176927
1742986057.5250378,-0.0026838862121764274
1742986057.526991,-0.00242232510514956
1742986057.5289438,-0.002453097000093897
1742986057.530897,-0.002516564033416593
1742986057.53285,-0.0025829159318903204
1742986057.534803,-0.002663692156119206
1742986057.536756,-0.0027521613540841764
1742986057.538709,-0.002976219214147633
1742986057.540662,-0.003037763004036308
1742986057.5426147,-0.0029358311020331903
1742986057.5445678,-0.0028762105555785364
1742986057.546521,-0.002836784065181104
1742986057.5484738,-0.0026608072909681743
1742986057.550427,-0.0027992808182176927
1742986057.5523798,-0.0029214067762780315
1742986057.554333,-0.0029435240757692744
1742986057.5562859,-0.002893519746484726
1742986057.558239,-0.0027877413576135666
1742986057.560192,-0.002721389459139839
1742986057.5621448,-0.0026559991823831217
1742986057.564098,-0.002543489441492888
1742986057.5660508,-0.0026358051263259004
1742986057.568004,-0.002845438660634199
1742986057.5699568,-0.002991605161619802
1742986057.57191,-0.0030194921914131075
1742986057.573863,-0.00281178190053883
1742986057.575816,-0.002650229452081059
1742986057.577769,-0.0024982932207933926
1742986057.579722,-0.0024165553748474963
1742986057.581675,-0.0025348348460397935
1742986057.5836277,-0.002684847833893438
1742986057.5855808,-0.002737737028329018
1742986057.5875337,-0.002781971627311503
1742986057.5894868,-0.00281178190053883
1742986057.59144,-0.002768508923273355
1742986057.5933928,-0.0029117905591079262
1742986057.595346,-0.003340673844894629
1742986057.5972989,-0.0034974181847673477
1742986057.599252,-0.0032820149201569855
1742986057.601205,-0.003121424093416225
1742986057.603158,-0.003048340842923424
1742986057.605111,-0.0024050159142433697
1742986057.6070638,-0.0023790521278840853
1742986057.609017,-0.002400207805658317
1742986057.6109698,-0.002415593753130486
1742986057.612923,-0.0023675126672799587
1742986057.6148758,-0.0025531056586629935
1742986057.616829,-0.0026819629687424066
1742986057.618782,-0.002770432166707377
1742986057.620735,-0.0027848564924625348
1742986057.622688,-0.0027579310843862397
1742986057.624641,-0.002663692156119206
1742986057.6265938,-0.002654075938949101
1742986057.6285467,-0.002767547301556345
1742986057.6304998,-0.002902174341937821
1742986057.632453,-0.0029300613717311266
1742986057.6344059,-0.0029502554277883483
1742986057.636359,-0.002889673259616684
1742986057.6383119,-0.002831014334879041
1742986057.640265,-0.0027396602717630393
1742986057.6422179,-0.002682924590459417
1742986057.644171,-0.002756969462669229
1742986057.646124,-0.0028839035293146205
1742986057.6480768,-0.0028396689303321356
1742986057.65003,-0.0026059948530985735
1742986057.6519828,-0.0025598370106820673
1742986057.653936,-0.002636766748042911
1742986057.6558888,-0.0026550375606661115
1742986057.657842,-0.0026021483662305315
1742986057.659795,-0.002693502429346533
1742986057.661748,-0.0027425451369140707
1742986057.663701,-0.002845438660634199
1742986057.665654,-0.0031983538307770684
1742986057.6676068,-0.0032935543807611125
1742986057.6695597,-0.003180083018153868
1742986057.6715128,-0.002939677588901232
1742986057.673466,-0.0026425364783449743
1742986057.6754189,-0.0024992548425104033
1742986057.677372,-0.0024165553748474963
1742986057.6793249,-0.002436749430904718
1742986057.681278,-0.002573299714720215
1742986057.6832309,-0.0027290824328759238
1742986057.685184,-0.002807935413670788
1742986057.6871367,-0.002916598667692979
1742986057.6890898,-0.0029012127202208103
1742986057.691043,-0.0028012040616517144
1742986057.6929958,-0.002710811620252723
1742986057.694949,-0.002624265665721774
1742986057.6969018,-0.0025261802505866984
1742986057.698855,-0.0025723380930032045
1742986057.700808,-0.002668500264704259
1742986057.702761,-0.002735813784894997
1742986057.704714,-0.0028598629863893573
1742986057.706667,-0.0031541192317945835
1742986057.7086198,-0.0032108549130982055
1742986057.7105727,-0.0030656500338296136
1742986057.7125258,-0.0029589100232414434
1742986057.7144787,-0.0027261975677248915
1742986057.7164319,-0.0025598370106820673
1742986057.718385,-0.0026444597217789956
1742986057.7203379,-0.002677154860157354
1742986057.722291,-0.00267042350813828
1742986057.7242439,-0.0026434981000619845
1742986057.726197,-0.0026800397253083853
1742986057.7281501,-0.0026588840475341535
1742986057.7301028,-0.00267042350813828
1742986057.732056,-0.0026559991823831217
1742986057.7340088,-0.002647344586930027
1742986057.735962,-0.0027329289197439654
1742986057.7379148,-0.0028242829828599675
1742986057.739868,-0.0029002510985038
1742986057.7418208,-0.0028858267727486417
1742986057.743774,-0.003029108408583213
1742986057.745727,-0.00307718949443374
1742986057.74768,-0.003060841925244561
1742986057.749633,-0.0029329462368821585
1742986057.7515857,-0.002836784065181104
1742986057.7535388,-0.002449250513225855
1742986057.7554917,-0.002390591588488212
1742986057.7574449,-0.002445404026357813
1742986057.759398,-0.0026233040440047633
1742986057.7613509,-0.0027060035116676703
1742986057.763304,-0.0027637008146883025
1742986057.765257,-0.002783894870745524
1742986057.76721,-0.0027281208111589127
1742986057.769163,-0.002721389459139839
1742986057.7711158,-0.0026867710773274592
1742986057.773069,-0.002722351080856849
1742986057.7750218,-0.002731005676309944
1742986057.776975,-0.002716581350554786
1742986057.7789278,-0.0027300440545929335
1742986057.780881,-0.0027617775712542817
1742986057.7828338,-0.0027637008146883025
1742986057.784787,-0.0028146667656898613
1742986057.78674,-0.002836784065181104
1742986057.788693,-0.0028473619040682197
1742986057.790646,-0.0029579484015244324
1742986057.7925987,-0.0029358311020331903
1742986057.7945518,-0.0028242829828599675
1742986057.7965047,-0.002725235946007881
1742986057.7984579,-0.0026579224258171433
1742986057.800411,-0.0025896472839093943
1742986057.8023639,-0.0026444597217789956
1742986057.804317,-0.002633881882891879
1742986057.80627,-0.0026463829652130164
1742986057.808223,-0.0026906175641955017
1742986057.810176,-0.002738698650046029
1742986057.8121288,-0.0028762105555785364
1742986057.814082,-0.003149311123209531
1742986057.8160348,-0.0032502814034956378
1742986057.817988,-0.0031906608570409843
1742986057.8199408,-0.002929099750014116
1742986057.821894,-0.002725235946007881
1742986057.8238468,-0.0023828986147521277
1742986057.8258,-0.0023001991470892207
1742986057.827753,-0.0025031013293784453
1742986057.829706,-0.002541566198058867
1742986057.831659,-0.0026059948530985735
1742986057.8336117,-0.0026790781035913747
1742986057.8355649,-0.002708888376818702
1742986057.8375177,-0.0027473532454991238
1742986057.8394709,-0.0028300527131620303
1742986057.841424,-0.0030089143525259916
1742986057.8433769,-0.0031973922090600577
1742986057.84533,-0.0031733516661347945
1742986057.847283,-0.003123347336850246
1742986057.849236,-0.0029733343489966014
1742986057.851189,-0.0025723380930032045
1742986057.853142,-0.0023790521278840853
1742986057.8550947,-0.002496369977359372
1742986057.8570478,-0.0024800224081701927
1742986057.859001,-0.002558875388965057
1742986057.8609538,-0.0025983018793624894
1742986057.862907,-0.0026329202611748686
1742986057.8648598,-0.002659845669251164
1742986057.866813,-0.002693502429346533
1742986057.868766,-0.0026886943207614805
1742986057.870719,-0.0027069651333846804
1742986057.872672,-0.0027771635187264503
1742986057.874625,-0.002902174341937821
1742986057.8765779,-0.0028973662333527683
1742986057.8785307,-0.002806012170236767
1742986057.8804839,-0.0027550462192352083
1742986057.8824368,-0.0027136964854037548
1742986057.8843899,-0.0026954256727805543
1742986057.886343,-0.0026800397253083853
1742986057.888296,-0.0026819629687424066
1742986057.890249,-0.002684847833893438
1742986057.892202,-0.0027050418899506596
1742986057.894155,-0.0027810100055944923
1742986057.8961077,-0.0028617862298233785
1742986057.8980608,-0.002888711637899673
1742986057.900014,-0.0028531316343702834
1742986057.9019668,-0.002855054877804304
1742986057.90392,-0.0028242829828599675
1742986057.9058728,-0.0028300527131620303
1742986057.907826,-0.002767547301556345
1742986057.9097788,-0.002774278653575419
1742986057.911732,-0.0027175429722717964
1742986057.913685,-0.002674269995006322
1742986057.915638,-0.002754084597518197
1742986057.9175909,-0.0027925494661986193
1742986057.9195437,-0.0028637094732573993
1742986057.9214969,-0.0029194835328440107
1742986057.9234498,-0.0029473705626373164
1742986057.9254029,-0.0028002424399347033
1742986057.927356,-0.002796395953066661
1742986057.929309,-0.0027281208111589127
1742986057.931262,-0.0026925408076295225
1742986057.933215,-0.002624265665721774
1742986057.935168,-0.00268773269904447
1742986057.9371207,-0.0027281208111589127
1742986057.9390738,-0.002731005676309944
1742986057.941027,-0.0027281208111589127
1742986057.9429798,-0.0027117732419697335
1742986057.944933,-0.002700233781365607
1742986057.9468858,-0.002702157024799628
1742986057.948839,-0.002668500264704259
1742986057.9507918,-0.0026781164818743645
1742986057.952745,-0.002676193238440343
1742986057.954698,-0.002702157024799628
1742986057.956651,-0.0027136964854037548
1742986057.9586039,-0.0027329289197439654
1742986057.9605567,-0.002767547301556345
1742986057.9625099,-0.0027771635187264503
1742986057.9644628,-0.0027877413576135666
1742986057.966416,-0.0027954343313496507
1742986057.968369,-0.002781971627311503
1742986057.970322,-0.002782933249028514
1742986057.972275,-0.002773317031858408
1742986057.974228,-0.0027435067586310817
1742986057.976181,-0.0027627391929712923
1742986057.978134,-0.002773317031858408
1742986057.9800868,-0.00279447270963264
1742986057.9820397,-0.0028108202788218197
1742986057.9839928,-0.002856978121238326
1742986057.985946,-0.0028762105555785364
1742986057.9878988,-0.002856016499521315
1742986057.989852,-0.002780048383877482
1742986057.9918048,-0.002746391623782113
1742986057.993758,-0.0027483148672161344
1742986057.995711,-0.0028098586571048086
1742986057.997664,-0.002874287312144515
1742986057.999617,-0.002879095420729568
1742986058.0015697,-0.002828129469728009
1742986058.0035229,-0.0027858181141795454
1742986058.0054758,-0.002770432166707377
1742986058.007429,-0.0027290824328759238
1742986058.0093818,-0.0026656153995532274
1742986058.011335,-0.002630997017740848
1742986058.013288,-0.002626188909155795
1742986058.015241,-0.0026896559424784906
1742986058.017194,-0.002746391623782113
1742986058.019147,-0.002760815949537271
1742986058.0210998,-0.002796395953066661
1742986058.0230527,-0.0028069737919537772
1742986058.0250058,-0.002796395953066661
1742986058.026959,-0.002725235946007881
1742986058.0289118,-0.0027069651333846804
1742986058.030865,-0.00272331270257386
1742986058.0328178,-0.002721389459139839
1742986058.034771,-0.0027194662157058185
1742986058.0367239,-0.0027127348636867437
1742986058.038677,-0.002708888376818702
1742986058.04063,-0.00272331270257386
1742986058.0425828,-0.002754084597518197
1742986058.0445359,-0.0027300440545929335
1742986058.0464888,-0.002774278653575419
1742986058.048442,-0.0027858181141795454
1742986058.0503948,-0.00279447270963264
1742986058.052348,-0.0028156283874068723
1742986058.054301,-0.002817551630840893
1742986058.056254,-0.0028473619040682197
1742986058.058207,-0.002816590009123883
1742986058.06016,-0.002806012170236767
1742986058.0621128,-0.0027954343313496507
1742986058.0640657,-0.0027848564924625348
1742986058.0660188,-0.0027271591894419025
1742986058.067972,-0.0027011954030826176
1742986058.0699248,-0.002685809455610449
1742986058.071878,-0.002707926755101691
1742986058.0738308,-0.002780048383877482
1742986058.075784,-0.0028608246081063674
1742986058.0777369,-0.002929099750014116
1742986058.07969,-0.0029791040792986646
1742986058.081643,-0.0029242916414290634
1742986058.0835958,-0.0028358224434640936
1742986058.0855489,-0.0028213981177089356
1742986058.0875018,-0.0027338905414609764
1742986058.089455,-0.0026886943207614805
1742986058.0914078,-0.002663692156119206
1742986058.093361,-0.00268773269904447
1742986058.095314,-0.0026925408076295225
1742986058.097267,-0.0027156197288377756
1742986058.09922,-0.002708888376818702
1742986058.101173,-0.0027281208111589127
1742986058.103126,-0.0027156197288377756
1742986058.1050787,-0.0027185045939888074
1742986058.1070318,-0.002746391623782113
1742986058.108985,-0.002753122975801187
1742986058.1109378,-0.002744468380348092
1742986058.112891,-0.0027435067586310817
1742986058.1148438,-0.002754084597518197
1742986058.116797,-0.0027665856798393344
1742986058.1187499,-0.002770432166707377
1742986058.120703,-0.0027656240581223237
1742986058.122656,-0.0027752402752924295
1742986058.124609,-0.0027665856798393344
1742986058.1265619,-0.002760815949537271
1742986058.1285148,-0.0027617775712542817
1742986058.130468,-0.0027848564924625348
1742986058.1324208,-0.0027560078409522184
1742986058.134374,-0.0027521613540841764
1742986058.136327,-0.002745430002065102
1742986058.13828,-0.0027579310843862397
1742986058.140233,-0.0027867797358965556
1742986058.142186,-0.0027781251404434613
1742986058.144139,-0.0028012040616517144
1742986058.1460917,-0.0028598629863893573
1742986058.1480448,-0.0028973662333527683
1742986058.1499977,-0.0028925581247677156
1742986058.1519508,-0.0028819802858805997
1742986058.153904,-0.002841592173766157
1742986058.1558568,-0.0028377456868981144
1742986058.15781,-0.0028088970353877985
1742986058.1597629,-0.0027656240581223237
1742986058.161716,-0.002822359739425946
1742986058.163669,-0.0028387073086151254
1742986058.165622,-0.0028444770389171887
1742986058.167575,-0.002807935413670788
1742986058.1695278,-0.0027752402752924295
1742986058.171481,-0.002783894870745524
1742986058.1734338,-0.002781971627311503
1742986058.175387,-0.0027896646010475874
1742986058.1773398,-0.0027762018970094397
1742986058.179293,-0.002767547301556345
1742986058.181246,-0.002745430002065102
1742986058.183199,-0.002737737028329018
1742986058.185152,-0.002721389459139839
1742986058.1871047,-0.002685809455610449
1742986058.1890578,-0.002708888376818702
1742986058.1910107,-0.002731967298026955
1742986058.1929638,-0.002731967298026955
1742986058.194917,-0.0027483148672161344
1742986058.1968699,-0.0027473532454991238
1742986058.198823,-0.0027627391929712923
1742986058.2007759,-0.002768508923273355
1742986058.202729,-0.002760815949537271
1742986058.2046819,-0.0027550462192352083
1742986058.206635,-0.0027656240581223237
1742986058.208588,-0.0028012040616517144
1742986058.2105408,-0.002797357574783672
1742986058.212494,-0.002767547301556345
1742986058.2144468,-0.002781971627311503
1742986058.2164,-0.0027848564924625348
1742986058.2183528,-0.0027781251404434613
1742986058.220306,-0.00279351108791563
1742986058.222259,-0.0028012040616517144
1742986058.224212,-0.0027867797358965556
1742986058.226165,-0.0027983191965006825
1742986058.228118,-0.002816590009123883
1742986058.2300708,-0.002836784065181104
1742986058.2320237,-0.002852170012653273
1742986058.2339768,-0.002866594338408431
1742986058.23593,-0.0028108202788218197
1742986058.2378829,-0.0027983191965006825
1742986058.239836,-0.0027877413576135666
1742986058.2417889,-0.0027781251404434613
1742986058.243742,-0.002756969462669229
1742986058.2456949,-0.002767547301556345
1742986058.247648,-0.002788702979330577
1742986058.2496011,-0.0028242829828599675
1742986058.2515538,-0.002831975956596051
1742986058.253507,-0.002842553795483167
1742986058.2554598,-0.0028531316343702834
1742986058.257413,-0.002854093256087294
1742986058.2593658,-0.002831975956596051
1742986058.261319,-0.002807935413670788
1742986058.263272,-0.002788702979330577
1742986058.265225,-0.002780048383877482
1742986058.267178,-0.0027492764889331446
1742986058.269131,-0.0027127348636867437
1742986058.2710838,-0.002736775406612008
1742986058.2730367,-0.002731967298026955
1742986058.2749898,-0.0027175429722717964
1742986058.2769427,-0.002731967298026955
1742986058.2788959,-0.0027396602717630393
1742986058.280849,-0.0027425451369140707
1742986058.2828019,-0.002768508923273355
1742986058.284755,-0.002768508923273355
1742986058.2867079,-0.0027579310843862397
1742986058.288661,-0.002753122975801187
1742986058.2906141,-0.0027550462192352083
1742986058.2925668,-0.0027752402752924295
1742986058.29452,-0.002768508923273355
1742986058.2964728,-0.0027848564924625348
1742986058.298426,-0.002807935413670788
1742986058.3003788,-0.0028021656833687246
1742986058.302332,-0.002816590009123883
1742986058.3042848,-0.0028088970353877985
1742986058.306238,-0.002782933249028514
1742986058.308191,-0.002756969462669229
1742986058.310144,-0.002760815949537271
1742986058.3120968,-0.002783894870745524
1742986058.3140497,-0.0028185132525579038
1742986058.3160028,-0.0028242829828599675
1742986058.3179557,-0.002819474874274914
1742986058.3199089,-0.0028233213611429564
1742986058.321862,-0.0027954343313496507
1742986058.3238149,-0.002759854327820261
1742986058.325768,-0.002756969462669229
1742986058.3277209,-0.0027790867621604715
1742986058.329674,-0.0028242829828599675
1742986058.331627,-0.002797357574783672
1742986058.3335798,-0.0028185132525579038
1742986058.335533,-0.0028233213611429564
1742986058.3374858,-0.0027877413576135666
1742986058.339439,-0.0027992808182176927
1742986058.3413918,-0.0028329375783130617
1742986058.343345,-0.002803127305085735
1742986058.3452978,-0.0028040889268027454
1742986058.347251,-0.002820436495991925
1742986058.349204,-0.0028098586571048086
1742986058.351157,-0.002780048383877482
1742986058.35311,-0.002753122975801187
1742986058.3550627,-0.002731005676309944
1742986058.3570158,-0.002731967298026955
1742986058.3589687,-0.002731005676309944
1742986058.3609219,-0.002759854327820261
1742986058.362875,-0.002770432166707377
1742986058.3648279,-0.0027637008146883025
1742986058.366781,-0.0027752402752924295
1742986058.368734,-0.002737737028329018
1742986058.370687,-0.0027290824328759238
1742986058.37264,-0.002754084597518197
1742986058.374593,-0.002805050548519756
1742986058.376546,-0.002780048383877482
1742986058.3784988,-0.002796395953066661
1742986058.380452,-0.0028069737919537772
1742986058.3824048,-0.0027983191965006825
1742986058.384358,-0.002803127305085735
1742986058.3863108,-0.002782933249028514
1742986058.388264,-0.002767547301556345
1742986058.390217,-0.0027992808182176927
1742986058.39217,-0.002771393788424387
1742986058.394123,-0.0027637008146883025
1742986058.3960757,-0.002760815949537271
1742986058.3980289,-0.0027954343313496507
1742986058.3999817,-0.0028146667656898613
1742986058.4019349,-0.002781971627311503
1742986058.403888,-0.0027848564924625348
1742986058.4058409,-0.002796395953066661
1742986058.407794,-0.002790626222764598
1742986058.409747,-0.0028108202788218197
1742986058.4117,-0.0027877413576135666
1742986058.413653,-0.0027762018970094397
1742986058.415606,-0.002754084597518197
1742986058.4175587,-0.0027492764889331446
1742986058.4195118,-0.0027723554101413976
1742986058.421465,-0.0027867797358965556
1742986058.4234178,-0.00279351108791563
1742986058.425371,-0.002817551630840893
1742986058.4273238,-0.002822359739425946
1742986058.429277,-0.0028098586571048086
1742986058.43123,-0.002781971627311503
1742986058.433183,-0.002759854327820261
1742986058.435136,-0.0027406218934800494
1742986058.4370887,-0.0027646624364053136
1742986058.4390419,-0.0027810100055944923
1742986058.4409947,-0.00279447270963264
1742986058.4429479,-0.0027877413576135666
1742986058.4449008,-0.002782933249028514
1742986058.4468539,-0.002781971627311503
1742986058.448807,-0.0027992808182176927
1742986058.45076,-0.0027810100055944923
1742986058.452713,-0.0027665856798393344
1742986058.454666,-0.0027617775712542817
1742986058.456619,-0.00275889270610325
1742986058.4585717,-0.0027790867621604715
1742986058.4605248,-0.0028271678480109984
1742986058.462478,-0.002796395953066661
1742986058.4644308,-0.0027954343313496507
1742986058.466384,-0.00279447270963264
1742986058.4683368,-0.0027848564924625348
1742986058.47029,-0.00279351108791563
1742986058.4722428,-0.002796395953066661
1742986058.474196,-0.002756969462669229
1742986058.476149,-0.002746391623782113
1742986058.478102,-0.0027877413576135666
1742986058.4800549,-0.0027983191965006825
1742986058.4820077,-0.002759854327820261
1742986058.4839609,-0.0027646624364053136
1742986058.4859138,-0.002807935413670788
1742986058.4878669,-0.0028146667656898613
1742986058.48982,-0.0027848564924625348
1742986058.491773,-0.002760815949537271
1742986058.493726,-0.002771393788424387
1742986058.495679,-0.0027877413576135666
1742986058.497632,-0.0027896646010475874
1742986058.499585,-0.0028088970353877985
1742986058.5015378,-0.002768508923273355
1742986058.503491,-0.0027656240581223237
1742986058.5054438,-0.0027646624364053136
1742986058.507397,-0.0027810100055944923
1742986058.5093498,-0.0028021656833687246
1742986058.511303,-0.0028021656833687246
1742986058.5132558,-0.0027617775712542817
1742986058.515209,-0.00275889270610325
1742986058.517162,-0.0027925494661986193
1742986058.519115,-0.002822359739425946
1742986058.5210679,-0.0028002424399347033
1742986058.5230207,-0.0027771635187264503
1742986058.5249739,-0.0027810100055944923
1742986058.5269268,-0.0027858181141795454
1742986058.52888,-0.0027848564924625348
1742986058.530833,-0.0027473532454991238
1742986058.532786,-0.0027338905414609764
1742986058.534739,-0.002790626222764598
1742986058.536692,-0.0028098586571048086
1742986058.538645,-0.002768508923273355
1742986058.540598,-0.00279351108791563
1742986058.5425508,-0.002781971627311503
1742986058.5445037,-0.002768508923273355
1742986058.5464568,-0.00279351108791563
1742986058.54841,-0.002816590009123883
1742986058.5503628,-0.002843515417200178
1742986058.552316,-0.00281178190053883
1742986058.5542688,-0.0027896646010475874
1742986058.556222,-0.0027954343313496507
1742986058.558175,-0.0027858181141795454
1742986058.560128,-0.0027810100055944923
1742986058.5620809,-0.002782933249028514
1742986058.5640337,-0.002780048383877482
1742986058.5659869,-0.0027954343313496507
1742986058.5679398,-0.0027752402752924295
1742986058.569893,-0.0027550462192352083
1742986058.5718458,-0.002756969462669229
1742986058.573799,-0.002746391623782113
1742986058.575752,-0.0027925494661986193
1742986058.577705,-0.002803127305085735
1742986058.579658,-0.0027954343313496507
1742986058.581611,-0.002797357574783672
1742986058.5835638,-0.0027896646010475874
1742986058.5855167,-0.0027723554101413976
1742986058.5874698,-0.002751199732367166
1742986058.589423,-0.002725235946007881
1742986058.5913758,-0.002714658107120765
1742986058.593329,-0.002737737028329018
1742986058.5952818,-0.002756969462669229
1742986058.597235,-0.0027925494661986193
1742986058.5991879,-0.002736775406612008
1742986058.601141,-0.002817551630840893
1742986058.603094,-0.002805050548519756
1742986058.6050467,-0.00281178190053883
1742986058.6069999,-0.002796395953066661
1742986058.6089528,-0.00279351108791563
1742986058.610906,-0.002782933249028514
1742986058.6128588,-0.002773317031858408
1742986058.614812,-0.002782933249028514
1742986058.616765,-0.0027617775712542817
1742986058.618718,-0.0027435067586310817
1742986058.620671,-0.002770432166707377
1742986058.622624,-0.002819474874274914
1742986058.624577,-0.002813705143972851
1742986058.6265297,-0.0028127435222558405
1742986058.6284828,-0.002816590009123883
1742986058.630436,-0.0028012040616517144
1742986058.6323888,-0.0027790867621604715
1742986058.634342,-0.0027877413576135666
1742986058.6362948,-0.002782933249028514
1742986058.638248,-0.002783894870745524
1742986058.6402009,-0.002783894870745524
1742986058.642154,-0.002774278653575419
1742986058.644107,-0.0027550462192352083
1742986058.6460598,-0.002816590009123883
1742986058.6480129,-0.0028252446045769776
1742986058.6499658,-0.0027954343313496507
1742986058.651919,-0.0027502381106501547
1742986058.6538718,-0.002782933249028514
1742986058.655825,-0.002782933249028514
1742986058.657778,-0.002768508923273355
1742986058.659731,-0.002773317031858408
1742986058.661684,-0.0027723554101413976
1742986058.663637,-0.0027762018970094397
1742986058.66559,-0.002774278653575419
1742986058.6675427,-0.002774278653575419
1742986058.6694958,-0.002774278653575419
1742986058.671449,-0.0027261975677248915
1742986058.6734018,-0.0026819629687424066
1742986058.675355,-0.0026723467515723013
1742986058.6773078,-0.00267042350813828
1742986058.679261,-0.0027338905414609764
1742986058.6812139,-0.002820436495991925
1742986058.683167,-0.0028156283874068723
1742986058.68512,-0.00282909109144502
1742986058.6870728,-0.0028069737919537772
1742986058.6890259,-0.002819474874274914
1742986058.6909788,-0.0028156283874068723
1742986058.692932,-0.0027617775712542817
1742986058.6948848,-0.0027656240581223237
1742986058.696838,-0.002780048383877482
1742986058.698791,-0.0027560078409522184
1742986058.700744,-0.00275889270610325
1742986058.702697,-0.002770432166707377
1742986058.70465,-0.0027877413576135666
1742986058.706603,-0.002782933249028514
1742986058.7085557,-0.002783894870745524
1742986058.7105088,-0.0027723554101413976
1742986058.7124617,-0.002803127305085735
1742986058.7144148,-0.002828129469728009
1742986058.716368,-0.0028088970353877985
1742986058.7183208,-0.0027338905414609764
1742986058.720274,-0.002753122975801187
1742986058.7222269,-0.002771393788424387
1742986058.72418,-0.0027992808182176927
1742986058.726133,-0.0028098586571048086
1742986058.728086,-0.0028146667656898613
1742986058.730039,-0.0028098586571048086
1742986058.7319918,-0.0027925494661986193
1742986058.733945,-0.002783894870745524
1742986058.7358978,-0.0027954343313496507
1742986058.737851,-0.002760815949537271
1742986058.7398038,-0.0027261975677248915
1742986058.741757,-0.002756969462669229
1742986058.74371,-0.002767547301556345
1742986058.745663,-0.0027290824328759238
1742986058.747616,-0.0027877413576135666
1742986058.749569,-0.0028012040616517144
1742986058.7515218,-0.002797357574783672
1742986058.7534747,-0.0027915878444816082
1742986058.7554278,-0.002788702979330577
1742986058.757381,-0.002767547301556345
1742986058.7593338,-0.00279351108791563
1742986058.761287,-0.0027877413576135666
1742986058.7632399,-0.0027771635187264503
1742986058.765193,-0.0027627391929712923
1742986058.7671459,-0.0027396602717630393
1742986058.769099,-0.002773317031858408
1742986058.771052,-0.0027752402752924295
1742986058.7730048,-0.0028040889268027454
1742986058.774958,-0.0027560078409522184
1742986058.7769108,-0.0027483148672161344
1742986058.778864,-0.0027396602717630393
1742986058.7808168,-0.002744468380348092
1742986058.78277,-0.002803127305085735
1742986058.784723,-0.002805050548519756
1742986058.786676,-0.0027521613540841764
1742986058.788629,-0.0027483148672161344
1742986058.790582,-0.00275889270610325
1742986058.7925348,-0.002744468380348092
1742986058.7944877,-0.002768508923273355
1742986058.7964408,-0.002806012170236767
1742986058.798394,-0.0027877413576135666
1742986058.8003469,-0.0027637008146883025
1742986058.8023,-0.0027790867621604715
1742986058.8042529,-0.0027983191965006825
1742986058.806206,-0.0027646624364053136
1742986058.8081589,-0.002714658107120765
1742986058.810112,-0.002721389459139839
1742986058.812065,-0.0027483148672161344
1742986058.8140178,-0.002816590009123883
1742986058.815971,-0.0027723554101413976
1742986058.8179238,-0.0027781251404434613
1742986058.819877,-0.002771393788424387
1742986058.8218298,-0.002782933249028514
1742986058.823783,-0.0027790867621604715
1742986058.825736,-0.0027867797358965556
1742986058.827689,-0.0027521613540841764
1742986058.829642,-0.002716581350554786
1742986058.831595,-0.002737737028329018
1742986058.8335478,-0.002768508923273355
1742986058.8355007,-0.0028098586571048086
1742986058.8374538,-0.0027877413576135666
1742986058.839407,-0.0027656240581223237
1742986058.8413599,-0.00281178190053883
1742986058.843313,-0.0028358224434640936
1742986058.8452659,-0.00281178190053883
1742986058.847219,-0.002807935413670788
1742986058.8491719,-0.0027915878444816082
1742986058.851125,-0.0028377456868981144
1742986058.8530781,-0.002866594338408431
1742986058.8550308,-0.0027762018970094397
1742986058.856984,-0.0027848564924625348
1742986058.8589368,-0.0027425451369140707
1742986058.86089,-0.002771393788424387
1742986058.8628428,-0.002769470544990366
1742986058.864796,-0.0027954343313496507
1742986058.8667488,-0.0028127435222558405
1742986058.868702,-0.0028675559601254418
1742986058.870655,-0.002888711637899673
1742986058.872608,-0.002855054877804304
1742986058.874561,-0.0028146667656898613
1742986058.8765137,-0.002707926755101691
1742986058.8784668,-0.0027050418899506596
1742986058.8804197,-0.0027300440545929335
1742986058.8823729,-0.0027329289197439654
1742986058.884326,-0.0027656240581223237
1742986058.8862789,-0.0027483148672161344
1742986058.888232,-0.0027261975677248915
1742986058.8901849,-0.0027415835151970605
1742986058.892138,-0.0027435067586310817
1742986058.894091,-0.002737737028329018
1742986058.8960438,-0.002797357574783672
1742986058.897997,-0.0027790867621604715
1742986058.8999498,-0.002746391623782113
1742986058.901903,-0.0027877413576135666
1742986058.9038558,-0.0028002424399347033
1742986058.905809,-0.0027858181141795454
1742986058.9077618,-0.0028069737919537772
1742986058.909715,-0.0027781251404434613
1742986058.911668,-0.002756969462669229
1742986058.913621,-0.002751199732367166
1742986058.915574,-0.0027492764889331446
1742986058.9175267,-0.0027550462192352083
1742986058.9194798,-0.002782933249028514
1742986058.9214327,-0.002816590009123883
1742986058.9233859,-0.0028002424399347033
1742986058.925339,-0.0028213981177089356
1742986058.9272919,-0.00279447270963264
1742986058.929245,-0.002783894870745524
1742986058.931198,-0.0027627391929712923
1742986058.933151,-0.0027848564924625348
1742986058.935104,-0.0028233213611429564
1742986058.9370568,-0.002820436495991925
1742986058.93901,-0.0028502467692192515
1742986058.9409628,-0.002916598667692979
1742986058.942916,-0.002759854327820261
1742986058.9448688,-0.002661768912685185
1742986058.946822,-0.002691579185912512
1742986058.9487748,-0.002691579185912512
1742986058.950728,-0.002746391623782113
1742986058.952681,-0.002780048383877482
1742986058.954634,-0.0027723554101413976
1742986058.956587,-0.0027637008146883025
1742986058.9585397,-0.00281178190053883
1742986058.9604928,-0.0029127521808249373
1742986058.9624457,-0.0028964046116357577
1742986058.9643989,-0.0028752489338615263
1742986058.966352,-0.0029194835328440107
1742986058.9683049,-0.002803127305085735
1742986058.970258,-0.002693502429346533
1742986058.972211,-0.002722351080856849
1742986058.974164,-0.00272331270257386
1742986058.976117,-0.0027011954030826176
1742986058.97807,-0.0027425451369140707
1742986058.9800227,-0.0027723554101413976
1742986058.9819758,-0.0027762018970094397
1742986058.983929,-0.0027752402752924295
1742986058.9858818,-0.0027790867621604715
1742986058.987835,-0.0027550462192352083
1742986058.9897878,-0.0027723554101413976
1742986058.991741,-0.0028098586571048086
1742986058.993694,-0.0027723554101413976
1742986058.995647,-0.0027646624364053136
1742986058.9976,-0.0028531316343702834
1742986058.999553,-0.00281178190053883
1742986059.0015059,-0.0027627391929712923
1742986059.0034587,-0.00279447270963264
1742986059.0054119,-0.002819474874274914
1742986059.0073647,-0.002842553795483167
1742986059.0093179,-0.0028329375783130617
1742986059.011271,-0.002819474874274914
1742986059.013224,-0.002841592173766157
1742986059.015177,-0.0028300527131620303
1742986059.01713,-0.0027300440545929335
1742986059.019083,-0.00272331270257386
1742986059.0210357,-0.0027060035116676703
1742986059.0229888,-0.002754084597518197
1742986059.024942,-0.0027646624364053136
1742986059.0268948,-0.002714658107120765
1742986059.028848,-0.0027665856798393344
1742986059.0308008,-0.002783894870745524
1742986059.032754,-0.002851208390936262
1742986059.0347068,-0.0028502467692192515
1742986059.03666,-0.002925253263146074
1742986059.038613,-0.0029242916414290634
1742986059.040566,-0.0028694792035594626
1742986059.0425189,-0.002880057042446579
1742986059.0444717,-0.002746391623782113
1742986059.0464249,-0.0026752316167233327
1742986059.0483778,-0.0026983105379315858
1742986059.0503309,-0.0026838862121764274
1742986059.052284,-0.0027194662157058185
1742986059.054237,-0.002721389459139839
1742986059.05619,-0.0027954343313496507
1742986059.058143,-0.002805050548519756
1742986059.060096,-0.002819474874274914
1742986059.0620487,-0.0028002424399347033
1742986059.0640018,-0.002805050548519756
1742986059.065955,-0.0027790867621604715
1742986059.0679078,-0.0028185132525579038
1742986059.069861,-0.0027156197288377756
1742986059.0718138,-0.002722351080856849
1742986059.073767,-0.002769470544990366
1742986059.0757198,-0.002756969462669229
1742986059.077673,-0.0027762018970094397
1742986059.079626,-0.0027627391929712923
1742986059.081579,-0.0027617775712542817
1742986059.0835319,-0.0028108202788218197
1742986059.0854847,-0.002831014334879041
1742986059.0874379,-0.002871402446993484
1742986059.0893908,-0.0029194835328440107
1742986059.0913439,-0.002805050548519756
1742986059.093297,-0.002851208390936262
1742986059.09525,-0.002745430002065102
1742986059.097203,-0.002676193238440343
1742986059.099156,-0.002693502429346533
1742986059.101109,-0.0027194662157058185
1742986059.103062,-0.0026867710773274592
1742986059.1050148,-0.0027300440545929335
1742986059.106968,-0.002796395953066661
1742986059.1089208,-0.002836784065181104
1742986059.110874,-0.002845438660634199
1742986059.1128268,-0.002820436495991925
1742986059.11478,-0.002773317031858408
1742986059.1167328,-0.002725235946007881
1742986059.118686,-0.0027271591894419025
1742986059.120639,-0.0027867797358965556
1742986059.122592,-0.0027858181141795454
1742986059.124545,-0.0027617775712542817
1742986059.1264977,-0.002746391623782113
1742986059.1284509,-0.0028098586571048086
1742986059.1304038,-0.0028146667656898613
1742986059.132357,-0.0028377456868981144
1742986059.13431,-0.002756969462669229
1742986059.136263,-0.002751199732367166
1742986059.138216,-0.002769470544990366
1742986059.140169,-0.00281178190053883
1742986059.142122,-0.0028492851475022413
1742986059.144075,-0.0028329375783130617
1742986059.1460278,-0.002731967298026955
1742986059.1479807,-0.0028127435222558405
1742986059.1499338,-0.002806012170236767
1742986059.151887,-0.0028502467692192515
1742986059.1538398,-0.0028002424399347033
1742986059.155793,-0.0027204278374228282
1742986059.1577458,-0.0027136964854037548
1742986059.159699,-0.002696387294497565
1742986059.1616518,-0.002702157024799628
1742986059.163605,-0.0027185045939888074
1742986059.165558,-0.0027271591894419025
1742986059.1675107,-0.0028098586571048086
1742986059.1694639,-0.002805050548519756
1742986059.1714168,-0.0028012040616517144
1742986059.17337,-0.002780048383877482
1742986059.1753228,-0.0027877413576135666
1742986059.177276,-0.002769470544990366
1742986059.179229,-0.0027665856798393344
1742986059.181182,-0.002753122975801187
1742986059.183135,-0.002759854327820261
1742986059.185088,-0.0027637008146883025
1742986059.1870408,-0.0027810100055944923
1742986059.1889937,-0.002797357574783672
1742986059.1909468,-0.002852170012653273
1742986059.1929,-0.0028675559601254418
1742986059.1948528,-0.002903135963654832
1742986059.196806,-0.002759854327820261
1742986059.1987588,-0.0027136964854037548
1742986059.200712,-0.0027492764889331446
1742986059.2026649,-0.0027617775712542817
1742986059.204618,-0.0027790867621604715
1742986059.206571,-0.0027867797358965556
1742986059.2085238,-0.0027656240581223237
1742986059.2104769,-0.002756969462669229
1742986059.2124298,-0.002780048383877482
1742986059.214383,-0.0027579310843862397
1742986059.2163358,-0.002773317031858408
1742986059.218289,-0.0027521613540841764
1742986059.220242,-0.0027550462192352083
1742986059.222195,-0.0027560078409522184
1742986059.224148,-0.002744468380348092
1742986059.226101,-0.0027396602717630393
1742986059.228054,-0.002780048383877482
1742986059.2300067,-0.0027867797358965556
1742986059.2319598,-0.002816590009123883
1742986059.233913,-0.0028088970353877985
1742986059.2358658,-0.002774278653575419
1742986059.237819,-0.002790626222764598
1742986059.2397718,-0.0027858181141795454
1742986059.241725,-0.002770432166707377
1742986059.2436779,-0.0027271591894419025
1742986059.245631,-0.0027175429722717964
1742986059.247584,-0.002731967298026955
1742986059.249537,-0.002836784065181104
1742986059.2514899,-0.0028973662333527683
1742986059.2534428,-0.002871402446993484
1742986059.255396,-0.002843515417200178
1742986059.2573488,-0.002744468380348092
1742986059.259302,-0.00272331270257386
1742986059.261255,-0.0027473532454991238
1742986059.263208,-0.002745430002065102
1742986059.265161,-0.0027637008146883025
1742986059.267114,-0.0027665856798393344
1742986059.269067,-0.0027925494661986193
1742986059.2710197,-0.002760815949537271
1742986059.2729728,-0.002745430002065102
1742986059.2749257,-0.0027502381106501547
1742986059.2768788,-0.002768508923273355
1742986059.278832,-0.0027867797358965556
1742986059.2807848,-0.0027848564924625348
1742986059.282738,-0.0027810100055944923
1742986059.2846909,-0.0027867797358965556
1742986059.286644,-0.002783894870745524
1742986059.288597,-0.002781971627311503
1742986059.29055,-0.0027762018970094397
1742986059.2925029,-0.0027896646010475874
1742986059.2944558,-0.0027790867621604715
1742986059.296409,-0.0027992808182176927
1742986059.2983618,-0.0027983191965006825
1742986059.300315,-0.0027637008146883025
1742986059.3022678,-0.002754084597518197
1742986059.304221,-0.0027560078409522184
1742986059.306174,-0.002768508923273355
1742986059.308127,-0.002822359739425946
1742986059.31008,-0.002816590009123883
1742986059.3120327,-0.002760815949537271
1742986059.3139858,-0.0027483148672161344
1742986059.3159387,-0.002769470544990366
1742986059.3178918,-0.002768508923273355
1742986059.319845,-0.002773317031858408
1742986059.3217978,-0.002788702979330577
1742986059.323751,-0.0028012040616517144
1742986059.3257039,-0.00279351108791563
1742986059.327657,-0.0027723554101413976
1742986059.3296099,-0.002756969462669229
1742986059.331563,-0.002780048383877482
1742986059.333516,-0.002783894870745524
1742986059.3354688,-0.002767547301556345
1742986059.337422,-0.002788702979330577
1742986059.3393748,-0.002774278653575419
1742986059.341328,-0.002813705143972851
1742986059.3432808,-0.0028088970353877985
1742986059.345234,-0.002782933249028514
1742986059.347187,-0.0027810100055944923
1742986059.34914,-0.0027858181141795454
1742986059.351093,-0.002790626222764598
1742986059.353046,-0.0027915878444816082
1742986059.3549988,-0.002796395953066661
1742986059.3569517,-0.00279447270963264
1742986059.3589048,-0.002790626222764598
1742986059.360858,-0.0027954343313496507
1742986059.3628109,-0.0027762018970094397
1742986059.364764,-0.0027637008146883025
1742986059.3667169,-0.002753122975801187
1742986059.36867,-0.0027261975677248915
1742986059.3706229,-0.002780048383877482
1742986059.372576,-0.0027329289197439654
1742986059.3745291,-0.0027348521631779866
1742986059.3764818,-0.002782933249028514
1742986059.378435,-0.0028108202788218197
1742986059.3803878,-0.002803127305085735
1742986059.382341,-0.002803127305085735
1742986059.3842938,-0.002806012170236767
1742986059.386247,-0.0028213981177089356
1742986059.3882,-0.002803127305085735
1742986059.390153,-0.002813705143972851
1742986059.392106,-0.002769470544990366
1742986059.394059,-0.002731005676309944
1742986059.3960118,-0.002759854327820261
1742986059.3979647,-0.002782933249028514
1742986059.3999178,-0.0027810100055944923
1742986059.401871,-0.0028300527131620303
1742986059.4038239,-0.00282909109144502
1742986059.405777,-0.0027954343313496507
1742986059.4077299,-0.002774278653575419
1742986059.409683,-0.002783894870745524
1742986059.4116359,-0.0027848564924625348
1742986059.413589,-0.00275889270610325
1742986059.4155421,-0.0027521613540841764
1742986059.4174948,-0.0027579310843862397
1742986059.419448,-0.0027579310843862397
1742986059.4214008,-0.0027954343313496507
1742986059.423354,-0.002813705143972851
1742986059.4253068,-0.002796395953066661
1742986059.42726,-0.0027560078409522184
1742986059.429213,-0.002769470544990366
1742986059.431166,-0.0027848564924625348
1742986059.433119,-0.002745430002065102
1742986059.435072,-0.002756969462669229
1742986059.4370248,-0.0027723554101413976
1742986059.4389777,-0.002782933249028514
1742986059.4409308,-0.002771393788424387
1742986059.4428837,-0.0027617775712542817
1742986059.4448369,-0.0027954343313496507
1742986059.44679,-0.00279351108791563
1742986059.4487429,-0.0027637008146883025
1742986059.450696,-0.0027790867621604715
1742986059.4526489,-0.0028021656833687246
1742986059.454602,-0.0028233213611429564
1742986059.456555,-0.0028088970353877985
1742986059.4585078,-0.0027992808182176927
1742986059.460461,-0.002796395953066661
1742986059.4624138,-0.002781971627311503
1742986059.464367,-0.0027521613540841764
1742986059.4663198,-0.0027579310843862397
1742986059.468273,-0.002796395953066661
1742986059.4702258,-0.002807935413670788
1742986059.472179,-0.0028098586571048086
1742986059.474132,-0.0028185132525579038
1742986059.476085,-0.0027896646010475874
1742986059.478038,-0.002790626222764598
1742986059.4799907,-0.0027752402752924295
1742986059.4819438,-0.002760815949537271
1742986059.4838967,-0.002754084597518197
1742986059.4858499,-0.0027329289197439654
1742986059.487803,-0.0027752402752924295
1742986059.4897559,-0.0027281208111589127
1742986059.491709,-0.0027194662157058185
1742986059.4936619,-0.0027502381106501547
1742986059.495615,-0.002707926755101691
1742986059.497568,-0.0027502381106501547
1742986059.499521,-0.002746391623782113
1742986059.501474,-0.002807935413670788
1742986059.5034268,-0.0028242829828599675
1742986059.50538,-0.002820436495991925
1742986059.5073328,-0.0028473619040682197
1742986059.509286,-0.002817551630840893
1742986059.5112388,-0.002796395953066661
1742986059.513192,-0.002783894870745524
1742986059.515145,-0.0027781251404434613
1742986059.517098,-0.0027637008146883025
1742986059.519051,-0.0027723554101413976
1742986059.5210037,-0.002767547301556345
1742986059.5229568,-0.0027646624364053136
1742986059.5249097,-0.0027646624364053136
1742986059.5268629,-0.002817551630840893
1742986059.528816,-0.002805050548519756
1742986059.5307689,-0.0028146667656898613
1742986059.532722,-0.0028002424399347033
1742986059.534675,-0.002797357574783672
1742986059.536628,-0.002806012170236767
1742986059.538581,-0.0027925494661986193
1742986059.540534,-0.0027992808182176927
1742986059.5424867,-0.0027954343313496507
1742986059.5444398,-0.0027954343313496507
1742986059.546393,-0.002768508923273355
1742986059.5483458,-0.0027627391929712923
1742986059.550299,-0.0027281208111589127
1742986059.5522518,-0.0027300440545929335
1742986059.554205,-0.0027790867621604715
1742986059.556158,-0.0027656240581223237
1742986059.558111,-0.0027560078409522184
1742986059.560064,-0.0027627391929712923
1742986059.5620167,-0.0027396602717630393
1742986059.5639699,-0.002746391623782113
1742986059.5659227,-0.0027627391929712923
1742986059.5678759,-0.002736775406612008
1742986059.5698287,-0.0027665856798393344
1742986059.5717819,-0.002782933249028514
1742986059.573735,-0.0027790867621604715
1742986059.575688,-0.00279351108791563
1742986059.577641,-0.0027983191965006825
1742986059.579594,-0.0027877413576135666
1742986059.581547,-0.0027665856798393344
1742986059.5834997,-0.0027790867621604715
1742986059.5854528,-0.0027771635187264503
1742986059.587406,-0.002773317031858408
1742986059.5893588,-0.002736775406612008
1742986059.591312,-0.002803127305085735
1742986059.5932648,-0.0027925494661986193
1742986059.595218,-0.0028156283874068723
1742986059.5971708,-0.002790626222764598
1742986059.599124,-0.002836784065181104
1742986059.601077,-0.0028271678480109984
1742986059.60303,-0.0028252446045769776
1742986059.6049829,-0.002855054877804304
1742986059.6069357,-0.00286563271669142
1742986059.6088889,-0.0028598629863893573
1742986059.6108418,-0.0028733256904275046
1742986059.6127949,-0.002880057042446579
1742986059.614748,-0.002894481368201737
1742986059.616701,-0.002856016499521315
1742986059.618654,-0.002817551630840893
1742986059.620607,-0.0027492764889331446
1742986059.62256,-0.002745430002065102
1742986059.624513,-0.0027329289197439654
1742986059.6264658,-0.002753122975801187
1742986059.628419,-0.0027550462192352083
1742986059.6303718,-0.0026954256727805543
1742986059.632325,-0.0027281208111589127
1742986059.6342778,-0.002773317031858408
1742986059.636231,-0.0028531316343702834
1742986059.6381838,-0.0027435067586310817
1742986059.640137,-0.002783894870745524
1742986059.64209,-0.0027617775712542817
1742986059.644043,-0.002745430002065102
1742986059.6459959,-0.0027627391929712923
1742986059.6479487,-0.002731005676309944
1742986059.6499019,-0.002707926755101691
1742986059.6518548,-0.002707926755101691
1742986059.6538079,-0.002716581350554786
1742986059.655761,-0.0027117732419697335
1742986059.657714,-0.002746391623782113
1742986059.659667,-0.002770432166707377
1742986059.66162,-0.0027752402752924295
1742986059.663573,-0.0027637008146883025
1742986059.665526,-0.00275889270610325
1742986059.6674788,-0.002737737028329018
1742986059.669432,-0.0027521613540841764
1742986059.6713848,-0.0027992808182176927
1742986059.673338,-0.0028598629863893573
1742986059.6752908,-0.002856016499521315
1742986059.677244,-0.0028492851475022413
1742986059.6791968,-0.002868517581842452
1742986059.68115,-0.0029271765065800952
1742986059.683103,-0.002989681918185781
1742986059.685056,-0.003037763004036308
1742986059.6870089,-0.003026223543432181
1742986059.6889617,-0.002985835431317738
1742986059.6909149,-0.002949293806071338
1742986059.6928678,-0.0028925581247677156
1742986059.694821,-0.0028156283874068723
1742986059.696774,-0.0027502381106501547
1742986059.698727,-0.0027848564924625348
1742986059.70068,-0.002744468380348092
1742986059.702633,-0.002716581350554786
1742986059.704586,-0.002731005676309944
1742986059.706539,-0.0026713851298552902
1742986059.7084918,-0.0026694618864212694
1742986059.7104447,-0.002633881882891879
1742986059.7123978,-0.0026348435046088903
1742986059.714351,-0.002596378635928468
1742986059.7163038,-0.0026434981000619845
1742986059.718257,-0.0026271505308728058
1742986059.7202098,-0.0026579224258171433
1742986059.722163,-0.002693502429346533
1742986059.724116,-0.002682924590459417
1742986059.726069,-0.0027156197288377756
1742986059.728022,-0.0027483148672161344
1742986059.7299747,-0.0027271591894419025
1742986059.7319279,-0.0027492764889331446
1742986059.7338808,-0.002769470544990366
1742986059.735834,-0.0027550462192352083
1742986059.7377868,-0.0027396602717630393
1742986059.73974,-0.0027483148672161344
1742986059.741693,-0.0027617775712542817
1742986059.743646,-0.002788702979330577
1742986059.745599,-0.002806012170236767
1742986059.747552,-0.0028262062262939883
1742986059.749505,-0.0028146667656898613
1742986059.7514577,-0.0027925494661986193
1742986059.7534108,-0.0027877413576135666
1742986059.755364,-0.0027877413576135666
1742986059.7573168,-0.002845438660634199
1742986059.75927,-0.0028858267727486417
1742986059.7612228,-0.0029367927237502005
1742986059.763176,-0.0029579484015244324
1742986059.7651289,-0.002974295970713612
1742986059.767082,-0.0029848738096007283
1742986059.769035,-0.0029983365136388752
1742986059.7709877,-0.0029608332666754642
1742986059.7729409,-0.0029541019146563908
1742986059.7748938,-0.002963718131826496
1742986059.776847,-0.002975257592430622
1742986059.7787998,-0.002975257592430622
1742986059.780753,-0.0029675646186945377
1742986059.782706,-0.0029012127202208103
1742986059.784659,-0.0028637094732573993
1742986059.786612,-0.002836784065181104
1742986059.788565,-0.0027954343313496507
1742986059.790518,-0.002702157024799628
1742986059.7924707,-0.0026290737743068266
1742986059.7944238,-0.0025559905238140253
1742986059.796377,-0.002550220793511962
1742986059.7983298,-0.0025540672803800045
1742986059.800283,-0.002562721875833099
1742986059.8022358,-0.00252906511573773
1742986059.804189,-0.0025983018793624894
1742986059.8061419,-0.002640613234910953
1742986059.808095,-0.0026531143172320907
1742986059.810048,-0.002676193238440343
1742986059.8120008,-0.0026838862121764274
1742986059.8139539,-0.0026838862121764274
1742986059.8159068,-0.0027117732419697335
1742986059.81786,-0.0027290824328759238
1742986059.8198128,-0.002759854327820261
1742986059.821766,-0.0027502381106501547
1742986059.823719,-0.002744468380348092
1742986059.825672,-0.002760815949537271
1742986059.827625,-0.0027992808182176927
1742986059.829578,-0.00279351108791563
1742986059.831531,-0.0027790867621604715
1742986059.8334837,-0.00279351108791563
1742986059.8354368,-0.0027992808182176927
1742986059.8373897,-0.0028012040616517144
1742986059.8393428,-0.002813705143972851
1742986059.841296,-0.002845438660634199
1742986059.8432488,-0.002845438660634199
1742986059.845202,-0.0028464002823512095
1742986059.8471549,-0.002856978121238326
1742986059.849108,-0.0028752489338615263
1742986059.851061,-0.0028396689303321356
1742986059.853014,-0.002842553795483167
1742986059.8549669,-0.0028483235257852307
1742986059.8569198,-0.0028589013646723466
1742986059.858873,-0.002874287312144515
1742986059.8608258,-0.002937754345467211
1742986059.862779,-0.0029598716449584536
1742986059.8647318,-0.002948332184354327
1742986059.866685,-0.0029060208288058634
1742986059.868638,-0.0029002510985038
1742986059.870591,-0.002904097585371842
1742986059.872544,-0.0029416008323352536
1742986059.874497,-0.0029156370459759687
1742986059.8764498,-0.002889673259616684
1742986059.8784027,-0.0028233213611429564
1742986059.8803558,-0.002722351080856849
1742986059.882309,-0.0026348435046088903
1742986059.8842618,-0.0026040716096645523
1742986059.886215,-0.0025819543101733102
1742986059.8881679,-0.002615611070268679
1742986059.890121,-0.0027185045939888074
1742986059.8920739,-0.0027656240581223237
1742986059.894027,-0.002796395953066661
1742986059.89598,-0.002797357574783672
1742986059.8979328,-0.0028329375783130617
1742986059.899886,-0.0027790867621604715
1742986059.9018388,-0.0027396602717630393
1742986059.903792,-0.002780048383877482
1742986059.9057448,-0.002790626222764598
1742986059.907698,-0.002725235946007881
1742986059.909651,-0.002759854327820261
1742986059.911604,-0.0027435067586310817
1742986059.913557,-0.0027646624364053136
1742986059.91551,-0.002773317031858408
1742986059.9174628,-0.0027637008146883025
1742986059.9194157,-0.0027656240581223237
1742986059.9213688,-0.0027435067586310817
1742986059.923322,-0.0027560078409522184
1742986059.9252748,-0.0027502381106501547
1742986059.927228,-0.0027637008146883025
1742986059.9291809,-0.002788702979330577
1742986059.931134,-0.0028464002823512095
1742986059.9330869,-0.002842553795483167
1742986059.93504,-0.002894481368201737
1742986059.936993,-0.002914675424258958
1742986059.9389458,-0.0028781337990125572
1742986059.940899,-0.0029204451545610213
1742986059.9428518,-0.002933907858599169
1742986059.944805,-0.0029839121878837173
1742986059.9467578,-0.0030069911090919704
1742986059.948711,-0.0029214067762780315
1742986059.950664,-0.002851208390936262
1742986059.952617,-0.0028242829828599675
1742986059.95457,-0.0027579310843862397
1742986059.956523,-0.0026521526955150796
1742986059.9584758,-0.0025992635010794996
1742986059.9604287,-0.0025752229581542363
1742986059.9623818,-0.002565606740984131
1742986059.964335,-0.002601186744513521
1742986059.9662879,-0.0026944640510635433
1742986059.968241,-0.0027992808182176927
1742986059.9701939,-0.0028233213611429564
1742986059.972147,-0.0028839035293146205
1742986059.9740999,-0.0029060208288058634
1742986059.976053,-0.0029156370459759687
1742986059.9780061,-0.002929099750014116
1742986059.9799588,-0.002817551630840893
1742986059.981912,-0.0027425451369140707
1742986059.9838648,-0.0027156197288377756
1742986059.985818,-0.0027348521631779866
1742986059.9877708,-0.002696387294497565
1742986059.989724,-0.0026886943207614805
1742986059.991677,-0.0027031186465166384
1742986059.99363,-0.0027415835151970605
1742986059.995583,-0.0028088970353877985
1742986059.997536,-0.002813705143972851
1742986059.999489,-0.0027983191965006825
1742986060.0014417,-0.002819474874274914
1742986060.0033948,-0.002803127305085735
1742986060.0053477,-0.0028021656833687246
1742986060.0073009,-0.002877172177295547
1742986060.009254,-0.0029685262404115487
1742986060.0112069,-0.002956986779807422
1742986060.01316,-0.002928138128297106
1742986060.0151129,-0.0029367927237502005
1742986060.017066,-0.0029271765065800952
1742986060.0190191,-0.0029156370459759687
1742986060.0209718,-0.002908905693956895
1742986060.022925,-0.0028156283874068723
1742986060.0248778,-0.0027502381106501547
1742986060.026831,-0.0027281208111589127
1742986060.0287838,-0.0026646537778362168
1742986060.030737,-0.002651191073798069
1742986060.0326898,-0.0026781164818743645
1742986060.034643,-0.002707926755101691
1742986060.036596,-0.0027983191965006825
1742986060.038549,-0.0029242916414290634
1742986060.040502,-0.003048340842923424
1742986060.0424547,-0.0031271938237182884
1742986060.0444078,-0.0031137311196801406
1742986060.0463607,-0.0031473878797755096
1742986060.0483139,-0.003071419764131677
1742986060.050267,-0.0029002510985038
1742986060.0522199,-0.0026675386429872486
1742986060.054173,-0.002490600247057308
1742986060.0561259,-0.002346356989505727
1742986060.058079,-0.002376167262733054
1742986060.060032,-0.0023877067233371804
1742986060.0619848,-0.002463674838981013
1742986060.063938,-0.0025492591717949514
1742986060.0658908,-0.0026300353960238376
1742986060.067844,-0.0027329289197439654
1742986060.0697968,-0.002871402446993484
1742986060.07175,-0.0029271765065800952
1742986060.0737028,-0.003069496520697656
1742986060.075656,-0.003062765168678582
1742986060.077609,-0.0030166073262620757
1742986060.079562,-0.0028848651510316316
1742986060.081515,-0.0027329289197439654
1742986060.0834677,-0.002661768912685185
1742986060.0854208,-0.0026579224258171433
1742986060.0873737,-0.002914675424258958
1742986060.0893269,-0.0032089316696641847
1742986060.09128,-0.0033733689832729876
1742986060.0932329,-0.0035464608923348856
1742986060.095186,-0.0035887722478833493
1742986060.097139,-0.0033877933090281456
1742986060.099092,-0.002986797053034749
1742986060.101045,-0.002668500264704259
1742986060.102998,-0.002356934828392843
1742986060.1049507,-0.0023425105026376844
1742986060.1069038,-0.0024117472662624436
1742986060.108857,-0.0026800397253083853
1742986060.1108098,-0.002841592173766157
1742986060.112763,-0.0029454473192032956
1742986060.1147158,-0.0029069824505228736
1742986060.116669,-0.002813705143972851
1742986060.118622,-0.002771393788424387
1742986060.120575,-0.0027579310843862397
1742986060.122528,-0.0028088970353877985
1742986060.124481,-0.0028444770389171887
1742986060.1264338,-0.002735813784894997
1742986060.1283867,-0.0027117732419697335
1742986060.1303399,-0.002691579185912512
1742986060.1322927,-0.002477137543019161
1742986060.1342459,-0.002506947816246487
1742986060.136199,-0.002594455392494447
1742986060.138152,-0.0027175429722717964
1742986060.140105,-0.002805050548519756
1742986060.142058,-0.002974295970713612
1742986060.144011,-0.0028608246081063674
1742986060.1459637,-0.0027156197288377756
1742986060.1479168,-0.002647344586930027
1742986060.14987,-0.0026175343137027
1742986060.1518228,-0.002565606740984131
1742986060.153776,-0.002654075938949101
1742986060.1557288,-0.0028271678480109984
1742986060.157682,-0.003001221378789907
1742986060.1596348,-0.0030416094909043495
1742986060.161588,-0.00307718949443374
1742986060.163541,-0.0029964132702048544
1742986060.165494,-0.002836784065181104
1742986060.1674469,-0.002790626222764598
1742986060.1693997,-0.0029271765065800952
1742986060.1713529,-0.0031531576100775733
1742986060.1733057,-0.0034656846681059995
1742986060.1752589,-0.0034426057468977464
1742986060.177212,-0.0032579743772317223
1742986060.179165,-0.0030300700303002234
1742986060.181118,-0.002852170012653273
1742986060.183071,-0.00268773269904447
1742986060.185024,-0.0025492591717949514
1742986060.1869767,-0.00267042350813828
1742986060.1889298,-0.002856016499521315
1742986060.190883,-0.0028156283874068723
1742986060.1928358,-0.0030281467868662026
1742986060.194789,-0.003001221378789907
1742986060.1967418,-0.0028387073086151254
1742986060.198695,-0.0027011954030826176
1742986060.2006478,-0.0026127262051176474
1742986060.202601,-0.0025761845798712465
1742986060.204554,-0.0025829159318903204
1742986060.206507,-0.0025752229581542363
1742986060.2084599,-0.0025983018793624894
1742986060.2104127,-0.0026002251227965102
1742986060.2123659,-0.0024973315990763816
1742986060.2143188,-0.0024146321314134755
1742986060.2162719,-0.002537719711190825
1742986060.218225,-0.0026175343137027
1742986060.220178,-0.002648306208647037
1742986060.222131,-0.0026559991823831217
1742986060.224084,-0.002684847833893438
1742986060.226037,-0.002790626222764598
1742986060.22799,-0.002893519746484726
1742986060.2299428,-0.002986797053034749
1742986060.231896,-0.0031877759918899524
1742986060.2338488,-0.0032089316696641847
1742986060.235802,-0.00321854788683429
1742986060.2377548,-0.0031252705802842676
1742986060.239708,-0.003133925175737362
1742986060.2416608,-0.0029214067762780315
1742986060.243614,-0.0026608072909681743
1742986060.245567,-0.002610802961683626
1742986060.24752,-0.002567529984418152
1742986060.249473,-0.0026069564748155845
1742986060.2514257,-0.0025386813329078355
1742986060.2533789,-0.00254637430664392
1742986060.2553318,-0.0025473359283609306
1742986060.2572849,-0.0026194575571367213
1742986060.259238,-0.0027435067586310817
1742986060.261191,-0.002796395953066661
1742986060.263144,-0.002871402446993484
1742986060.265097,-0.0028608246081063674
1742986060.26705,-0.0028608246081063674
1742986060.269003,-0.0026040716096645523
1742986060.2709558,-0.002449250513225855
1742986060.2729087,-0.002542527819775878
1742986060.2748618,-0.0025992635010794996
1742986060.276815,-0.0026300353960238376
1742986060.2787678,-0.0026790781035913747
1742986060.280721,-0.0028925581247677156
1742986060.2826738,-0.0033137484368183337
1742986060.284627,-0.0035656933266750962
1742986060.28658,-0.003653200902923056
1742986060.288533,-0.0034868403458802317
1742986060.290486,-0.003114692741397151
1742986060.2924387,-0.0024184786182815175
1742986060.2943919,-0.002058832096119574
1742986060.2963448,-0.002039599661779363
1742986060.298298,-0.002149224537518565
1742986060.3002508,-0.002474252677868129
1742986060.302204,-0.002707926755101691
1742986060.304157,-0.002816590009123883
1742986060.30611,-0.002903135963654832
1742986060.308063,-0.002939677588901232
1742986060.310016,-0.0028531316343702834
1742986060.3119688,-0.002659845669251164
1742986060.3139217,-0.002586762418758363
1742986060.3158748,-0.0025559905238140253
1742986060.317828,-0.0025079094379634984
1742986060.3197808,-0.002567529984418152
1742986060.321734,-0.0025242570071526776
1742986060.3236868,-0.0025511824152289727
1742986060.32564,-0.002649267830364048
1742986060.3275928,-0.0027031186465166384
1742986060.329546,-0.0027656240581223237
1742986060.331499,-0.0027954343313496507
1742986060.3334517,-0.002768508923273355
1742986060.3354049,-0.002714658107120765
1742986060.3373578,-0.002708888376818702
1742986060.339311,-0.0026983105379315858
1742986060.3412638,-0.0026550375606661115
1742986060.343217,-0.0026348435046088903
1742986060.34517,-0.0026579224258171433
1742986060.347123,-0.0026886943207614805
1742986060.349076,-0.0027425451369140707
1742986060.351029,-0.0028473619040682197
1742986060.352982,-0.0028983278550697793
1742986060.3549347,-0.00286467109497441
1742986060.3568878,-0.0027665856798393344
1742986060.358841,-0.0029416008323352536
1742986060.3607938,-0.0030589186818105398
1742986060.362747,-0.003048340842923424
1742986060.3646998,-0.0030637267903955924
1742986060.366653,-0.0029502554277883483
1742986060.3686059,-0.002509832681397519
1742986060.370559,-0.002356934828392843
1742986060.372512,-0.0025829159318903204
1742986060.374465,-0.0027896646010475874
1742986060.3764179,-0.0030666116555466243
1742986060.3783708,-0.0031714284227007737
1742986060.380324,-0.0030743046292827088
1742986060.3822768,-0.0028839035293146205
1742986060.38423,-0.0026906175641955017
1742986060.386183,-0.0024684829475660657
1742986060.388136,-0.002255964548106736
1742986060.390089,-0.002366551045562948
1742986060.392042,-0.0026329202611748686
1742986060.393995,-0.002744468380348092
1742986060.3959477,-0.0028338992000300728
1742986060.3979008,-0.0027627391929712923
1742986060.3998537,-0.0026069564748155845
1742986060.4018068,-0.002594455392494447
1742986060.40376,-0.002556952145531036
1742986060.4057128,-0.0026213808005707425
1742986060.407666,-0.0027040802682336495
1742986060.4096189,-0.002673308373289312
1742986060.411572,-0.0027300440545929335
1742986060.413525,-0.002677154860157354
1742986060.415478,-0.002630997017740848
1742986060.4174309,-0.002580992688456299
1742986060.4193838,-0.00275889270610325
1742986060.421337,-0.0027954343313496507
1742986060.4232898,-0.002855054877804304
1742986060.425243,-0.0028358224434640936
1742986060.4271958,-0.0027185045939888074
1742986060.429149,-0.0025761845798712465
1742986060.431102,-0.0026665770212702376
1742986060.433055,-0.0026886943207614805
1742986060.435008,-0.002714658107120765
1742986060.4369607,-0.002693502429346533
1742986060.4389138,-0.0026300353960238376
1742986060.4408667,-0.002518487276850614
1742986060.4428198,-0.002649267830364048
1742986060.444773,-0.0027060035116676703
1742986060.4467258,-0.002774278653575419
1742986060.448679,-0.0028483235257852307
1742986060.4506319,-0.0029310229934481377
1742986060.452585,-0.002890634881333695
1742986060.4545379,-0.002820436495991925
1742986060.456491,-0.002677154860157354
1742986060.4584439,-0.0026127262051176474
1742986060.4603968,-0.0025790694450222784
1742986060.46235,-0.0025329116026057722
1742986060.4643028,-0.002648306208647037
1742986060.466256,-0.003029108408583213
1742986060.4682088,-0.003151234366643552
1742986060.470162,-0.0031271938237182884
1742986060.472115,-0.0031031532807930247
1742986060.474068,-0.0028021656833687246
1742986060.476021,-0.0024290564571686334
1742986060.477974,-0.002447327269791834
1742986060.4799268,-0.0024877153819062763
1742986060.4818797,-0.0026002251227965102
1742986060.4838328,-0.0027040802682336495
1742986060.485786,-0.002731967298026955
1742986060.4877388,-0.0026723467515723013
1742986060.489692,-0.002699272159648596
1742986060.4916449,-0.0028358224434640936
1742986060.493598,-0.002868517581842452
1742986060.4955509,-0.002908905693956895
1742986060.497504,-0.0029069824505228736
1742986060.4994571,-0.0027617775712542817
1742986060.5014098,-0.002597340257645479
1742986060.503363,-0.0024829072733212236
1742986060.5053158,-0.0024684829475660657
1742986060.507269,-0.0024838688950382343
1742986060.5092218,-0.0025252186288696877
1742986060.511175,-0.0025511824152289727
1742986060.513128,-0.002577146201588257
1742986060.515081,-0.0026434981000619845
1742986060.517034,-0.002674269995006322
1742986060.518987,-0.0027281208111589127
1742986060.5209398,-0.002781971627311503
1742986060.5228927,-0.0027521613540841764
1742986060.5248458,-0.0026944640510635433
1742986060.526799,-0.0026550375606661115
1742986060.5287519,-0.002648306208647037
1742986060.530705,-0.0026906175641955017
1742986060.5326579,-0.002710811620252723
1742986060.534611,-0.0026675386429872486
1742986060.5365639,-0.0026329202611748686
1742986060.538517,-0.002626188909155795
1742986060.5404701,-0.002622342422287753
1742986060.5424228,-0.002633881882891879
1742986060.544376,-0.002710811620252723
1742986060.5463288,-0.002887750016182663
1742986060.548282,-0.003227202482287385
1742986060.5502348,-0.003241626808042543
1742986060.552188,-0.0031262322020012777
1742986060.554141,-0.0027521613540841764
1742986060.556094,-0.002492523490491329
1742986060.558047,-0.0023973229405072857
1742986060.56,-0.0024915618687743188
1742986060.5619528,-0.0026204191788537314
1742986060.5639057,-0.002888711637899673
1742986060.5658588,-0.003163735448964689
1742986060.5678117,-0.0032300873474384166
1742986060.5697649,-0.003100268415641993
1742986060.571718,-0.002881018664163589
1742986060.5736709,-0.002519448898567625
1742986060.575624,-0.0023338559071845897
1742986060.5775769,-0.0023684742889969693
1742986060.57953,-0.0024502121349428657
1742986060.5814831,-0.002661768912685185
1742986060.5834358,-0.002677154860157354
1742986060.585389,-0.0026184959354197106
1742986060.5873418,-0.002567529984418152
1742986060.589295,-0.002490600247057308
1742986060.5912478,-0.0025511824152289727
1742986060.593201,-0.002597340257645479
1742986060.5951538,-0.0025954170142114576
1742986060.597107,-0.002596378635928468
1742986060.59906,-0.0026184959354197106
1742986060.601013,-0.0026810013470253964
1742986060.602966,-0.0027348521631779866
1742986060.6049187,-0.0027175429722717964
1742986060.6068718,-0.0027069651333846804
1742986060.6088247,-0.0027031186465166384
1742986060.6107779,-0.0027031186465166384
1742986060.612731,-0.002725235946007881
1742986060.6146839,-0.0027396602717630393
1742986060.616637,-0.0027040802682336495
1742986060.6185899,-0.0027281208111589127
1742986060.620543,-0.0027338905414609764
1742986060.622496,-0.0027040802682336495
1742986060.624449,-0.0026675386429872486
1742986060.626402,-0.0026521526955150796
1742986060.6283548,-0.002626188909155795
1742986060.630308,-0.0026329202611748686
1742986060.6322608,-0.0026300353960238376
1742986060.634214,-0.002647344586930027
1742986060.6361668,-0.002663692156119206
1742986060.63812,-0.002668500264704259
1742986060.640073,-0.0027435067586310817
1742986060.642026,-0.002756969462669229
1742986060.643979,-0.0027665856798393344
1742986060.6459317,-0.0027790867621604715
1742986060.6478848,-0.0028108202788218197
1742986060.6498377,-0.002767547301556345
1742986060.6517909,-0.0027136964854037548
1742986060.653744,-0.002788702979330577
1742986060.6556969,-0.002857939742955336
1742986060.65765,-0.002904097585371842
1742986060.6596029,-0.0028925581247677156
1742986060.661556,-0.002851208390936262
1742986060.663509,-0.0026790781035913747
1742986060.665462,-0.0026088797182496053
1742986060.6674147,-0.00254637430664392
1742986060.6693678,-0.0025329116026057722
1742986060.671321,-0.002542527819775878
1742986060.6732738,-0.0025781078233052678
1742986060.675227,-0.0025684916061351625
1742986060.6771798,-0.0026194575571367213
1742986060.679133,-0.002682924590459417
1742986060.681086,-0.002737737028329018
1742986060.683039,-0.0027492764889331446
1742986060.684992,-0.0027117732419697335
1742986060.6869447,-0.002722351080856849
1742986060.6888978,-0.002673308373289312
1742986060.6908507,-0.002649267830364048
1742986060.6928039,-0.002650229452081059
1742986060.6947567,-0.0026531143172320907
1742986060.6967099,-0.002677154860157354
1742986060.698663,-0.0026800397253083853
1742986060.700616,-0.002684847833893438
1742986060.702569,-0.002676193238440343
1742986060.704522,-0.002674269995006322
1742986060.706475,-0.0026694618864212694
1742986060.7084277,-0.002648306208647037
1742986060.7103808,-0.0026713851298552902
1742986060.712334,-0.0026675386429872486
1742986060.7142868,-0.0026656153995532274
1742986060.71624,-0.002710811620252723
1742986060.7181928,-0.0027771635187264503
1742986060.720146,-0.002888711637899673
1742986060.7220988,-0.002891596503050705
1742986060.724052,-0.0028829419075976103
1742986060.726005,-0.00286563271669142
1742986060.727958,-0.0028762105555785364
1742986060.7299109,-0.002931984615165148
1742986060.7318637,-0.0028723640687104944
1742986060.7338169,-0.0028723640687104944
1742986060.7357697,-0.0027810100055944923
1742986060.7377229,-0.002754084597518197
1742986060.739676,-0.002639651613193943
1742986060.741629,-0.002586762418758363
1742986060.743582,-0.0026752316167233327
1742986060.745535,-0.002770432166707377
1742986060.747488,-0.002771393788424387
1742986060.749441,-0.0027915878444816082
1742986060.7513938,-0.0027867797358965556
1742986060.753347,-0.0027348521631779866
1742986060.7552998,-0.002781971627311503
1742986060.757253,-0.0026646537778362168
1742986060.7592058,-0.002550220793511962
1742986060.761159,-0.0025281034940207196
1742986060.7631118,-0.0025579137672480465
1742986060.765065,-0.002565606740984131
1742986060.767018,-0.0025723380930032045
1742986060.768971,-0.0026233040440047633
1742986060.7709239,-0.002601186744513521
1742986060.7728767,-0.0026079180965325947
1742986060.7748299,-0.0026204191788537314
1742986060.7767828,-0.0026588840475341535
1742986060.7787359,-0.002685809455610449
1742986060.780689,-0.002702157024799628
1742986060.782642,-0.002702157024799628
1742986060.784595,-0.002662730534402196
1742986060.786548,-0.0026819629687424066
1742986060.788501,-0.0026886943207614805
1742986060.790454,-0.0026675386429872486
1742986060.7924068,-0.002661768912685185
1742986060.79436,-0.0026665770212702376
1742986060.7963128,-0.002661768912685185
1742986060.798266,-0.00267042350813828
1742986060.8002188,-0.002707926755101691
1742986060.802172,-0.0027300440545929335
1742986060.8041248,-0.0027194662157058185
1742986060.806078,-0.0027281208111589127
1742986060.808031,-0.0027617775712542817
1742986060.809984,-0.002788702979330577
1742986060.8119369,-0.0028012040616517144
1742986060.8138897,-0.002768508923273355
1742986060.8158429,-0.002737737028329018
1742986060.8177958,-0.0027396602717630393
1742986060.8197489,-0.002745430002065102
1742986060.821702,-0.0027261975677248915
1742986060.823655,-0.0027069651333846804
1742986060.825608,-0.0027098499985357123
1742986060.827561,-0.0027031186465166384
1742986060.829514,-0.002735813784894997
1742986060.831467,-0.002782933249028514
1742986060.8334198,-0.0028012040616517144
1742986060.8353727,-0.002874287312144515
1742986060.8373258,-0.0029531402929393797
1742986060.839279,-0.002978142457581654
1742986060.8412318,-0.002816590009123883
1742986060.843185,-0.002807935413670788
1742986060.8451378,-0.002735813784894997
1742986060.847091,-0.0025348348460397935
1742986060.849044,-0.0025117559248315404
1742986060.850997,-0.002480984029887203
1742986060.85295,-0.0024800224081701927
1742986060.8549027,-0.002535796467756804
1742986060.8568559,-0.002573299714720215
1742986060.8588088,-0.0026040716096645523
1742986060.860762,-0.002628112152589816
1742986060.8627148,-0.002651191073798069
1742986060.864668,-0.0026656153995532274
1742986060.866621,-0.0026752316167233327
1742986060.868574,-0.0026665770212702376
1742986060.870527,-0.0026694618864212694
1742986060.87248,-0.0027175429722717964
1742986060.874433,-0.0027136964854037548
1742986060.8763857,-0.002736775406612008
1742986060.8783388,-0.0027338905414609764
1742986060.880292,-0.0027175429722717964
1742986060.8822448,-0.0026838862121764274
1742986060.884198,-0.0026944640510635433
1742986060.8861508,-0.0026896559424784906
1742986060.888104,-0.00268773269904447
1742986060.8900568,-0.0026944640510635433
1742986060.89201,-0.0026838862121764274
1742986060.893963,-0.0027060035116676703
1742986060.8959157,-0.0027050418899506596
1742986060.8978689,-0.0027579310843862397
1742986060.8998218,-0.0027858181141795454
1742986060.901775,-0.0028069737919537772
1742986060.9037278,-0.0027406218934800494
1742986060.905681,-0.002682924590459417
1742986060.907634,-0.0027175429722717964
1742986060.909587,-0.00272331270257386
1742986060.91154,-0.002735813784894997
1742986060.913493,-0.002770432166707377
1742986060.915446,-0.002782933249028514
1742986060.9173987,-0.0028444770389171887
1742986060.9193518,-0.003031031652017234
1742986060.921305,-0.003151234366643552
1742986060.9232578,-0.0031531576100775733
1742986060.925211,-0.003046417599489403
1742986060.9271638,-0.002908905693956895
1742986060.929117,-0.0028108202788218197
1742986060.9310699,-0.0025704148495691837
1742986060.933023,-0.0024271332137346126
1742986060.934976,-0.0024588667303959604
1742986060.9369287,-0.0025694532278521726
1742986060.9388819,-0.0026021483662305315
1742986060.9408348,-0.0025819543101733102
1742986060.942788,-0.00256464511926712
1742986060.9447408,-0.002615611070268679
1742986060.946694,-0.002624265665721774
1742986060.948647,-0.0026079180965325947
1742986060.9506,-0.0026300353960238376
1742986060.952553,-0.002651191073798069
1742986060.954506,-0.0026569608041001323
1742986060.956459,-0.0026867710773274592
1742986060.9584117,-0.0026867710773274592
1742986060.9603648,-0.0026886943207614805
1742986060.9623177,-0.0027011954030826176
1742986060.9642708,-0.002716581350554786
1742986060.966224,-0.002738698650046029
1742986060.9681768,-0.002707926755101691
1742986060.97013,-0.0026588840475341535
1742986060.9720829,-0.002700233781365607
1742986060.974036,-0.0027069651333846804
1742986060.975989,-0.002714658107120765
1742986060.977942,-0.002708888376818702
1742986060.9798949,-0.002756969462669229
1742986060.9818478,-0.0027762018970094397
1742986060.983801,-0.0027646624364053136
1742986060.9857538,-0.0027425451369140707
1742986060.987707,-0.0027281208111589127
1742986060.9896598,-0.0027204278374228282
1742986060.991613,-0.0027348521631779866
1742986060.993566,-0.0027300440545929335
1742986060.995519,-0.002756969462669229
1742986060.997472,-0.002731005676309944
1742986060.999425,-0.002714658107120765
1742986061.0013778,-0.0027665856798393344
1742986061.0033307,-0.0027723554101413976
1742986061.0052838,-0.0027790867621604715
1742986061.007237,-0.002822359739425946
1742986061.0091898,-0.0028329375783130617
1742986061.011143,-0.002834860821747083
1742986061.0130959,-0.0028329375783130617
1742986061.015049,-0.0028483235257852307
1742986061.0170019,-0.0028338992000300728
1742986061.018955,-0.0028406305520491462
1742986061.0209079,-0.0028127435222558405
1742986061.0228608,-0.002756969462669229
1742986061.024814,-0.0027290824328759238
1742986061.0267668,-0.0027194662157058185
1742986061.02872,-0.002654075938949101
1742986061.0306728,-0.0026579224258171433
1742986061.032626,-0.002587724040475373
1742986061.034579,-0.0025790694450222784
1742986061.036532,-0.002624265665721774
1742986061.038485,-0.0026531143172320907
1742986061.040438,-0.0026723467515723013
1742986061.0423908,-0.002696387294497565
1742986061.0443437,-0.002708888376818702
1742986061.0462968,-0.0027050418899506596
1742986061.04825,-0.002699272159648596
1742986061.0502028,-0.002708888376818702
1742986061.052156,-0.00272331270257386
1742986061.0541089,-0.0027281208111589127
1742986061.056062,-0.002708888376818702
1742986061.0580149,-0.002738698650046029
1742986061.059968,-0.002731005676309944
1742986061.061921,-0.0027415835151970605
1742986061.0638738,-0.0027290824328759238
1742986061.065827,-0.002699272159648596
1742986061.0677798,-0.002685809455610449
1742986061.069733,-0.002736775406612008
1742986061.0716858,-0.0027435067586310817
1742986061.073639,-0.0027348521631779866
1742986061.075592,-0.002731005676309944
1742986061.077545,-0.0027127348636867437
1742986061.079498,-0.0027031186465166384
1742986061.081451,-0.002697348916214575
1742986061.0834038,-0.0027502381106501547
1742986061.0853567,-0.0028088970353877985
1742986061.0873098,-0.002845438660634199
1742986061.089263,-0.002806012170236767
1742986061.0912158,-0.002756969462669229
1742986061.093169,-0.002673308373289312
1742986061.0951219,-0.002677154860157354
1742986061.097075,-0.0027425451369140707
1742986061.0990279,-0.0028694792035594626
1742986061.100981,-0.002949293806071338
1742986061.1029341,-0.0029925667833368124
1742986061.1048868,-0.0029954516484878443
1742986061.10684,-0.0028781337990125572
1742986061.1087928,-0.0028233213611429564
1742986061.110746,-0.002710811620252723
1742986061.1126988,-0.0025694532278521726
1742986061.114652,-0.0025521440369459833
1742986061.116605,-0.0025915705273434155
1742986061.118558,-0.002639651613193943
1742986061.120511,-0.0026521526955150796
1742986061.122464,-0.002676193238440343
1742986061.124417,-0.0027040802682336495
1742986061.1263697,-0.002691579185912512
1742986061.1283228,-0.0026810013470253964
1742986061.1302757,-0.0026838862121764274
1742986061.1322289,-0.0026906175641955017
1742986061.134182,-0.002697348916214575
1742986061.1361349,-0.002702157024799628
1742986061.138088,-0.0027156197288377756
1742986061.1400409,-0.0027204278374228282
1742986061.141994,-0.0027194662157058185
1742986061.1439471,-0.002735813784894997
1742986061.1458998,-0.002736775406612008
1742986061.147853,-0.0027435067586310817
1742986061.1498058,-0.002721389459139839
1742986061.151759,-0.002702157024799628
1742986061.1537118,-0.0027031186465166384
1742986061.155665,-0.0026800397253083853
1742986061.1576178,-0.0027492764889331446
1742986061.159571,-0.00275889270610325
1742986061.161524,-0.002702157024799628
1742986061.163477,-0.0027175429722717964
1742986061.16543,-0.0027271591894419025
1742986061.1673827,-0.0027415835151970605
1742986061.1693358,-0.002746391623782113
1742986061.1712887,-0.002790626222764598
1742986061.1732419,-0.0027483148672161344
1742986061.175195,-0.0027060035116676703
1742986061.1771479,-0.002714658107120765
1742986061.179101,-0.002805050548519756
1742986061.1810539,-0.002822359739425946
1742986061.183007,-0.00286467109497441
1742986061.18496,-0.002856978121238326
1742986061.1869128,-0.0027954343313496507
1742986061.188866,-0.002783894870745524
1742986061.1908188,-0.002721389459139839
1742986061.192772,-0.0027338905414609764
1742986061.1947248,-0.0027406218934800494
1742986061.196678,-0.002745430002065102
1742986061.1986308,-0.002790626222764598
1742986061.200584,-0.002781971627311503
1742986061.202537,-0.0027627391929712923
1742986061.20449,-0.0027396602717630393
1742986061.206443,-0.002707926755101691
1742986061.2083957,-0.002731005676309944
1742986061.2103488,-0.00272331270257386
1742986061.2123017,-0.0027040802682336495
1742986061.2142549,-0.0026550375606661115
1742986061.216208,-0.0026444597217789956
1742986061.2181609,-0.002676193238440343
1742986061.220114,-0.0026723467515723013
1742986061.2220669,-0.002685809455610449
1742986061.22402,-0.00272331270257386
1742986061.225973,-0.0027521613540841764
1742986061.227926,-0.0027752402752924295
1742986061.229879,-0.002721389459139839
1742986061.2318318,-0.0027117732419697335
1742986061.233785,-0.0027175429722717964
1742986061.2357378,-0.002744468380348092
1742986061.237691,-0.0027435067586310817
1742986061.2396438,-0.0027271591894419025
1742986061.241597,-0.002722351080856849
1742986061.24355,-0.002724274324290871
1742986061.245503,-0.0027502381106501547
1742986061.247456,-0.0027435067586310817
1742986061.249409,-0.002731005676309944
1742986061.2513618,-0.0027127348636867437
1742986061.2533147,-0.0027185045939888074
1742986061.2552679,-0.0027185045939888074
1742986061.2572207,-0.0027204278374228282
1742986061.2591739,-0.002746391623782113
1742986061.261127,-0.002768508923273355
1742986061.26308,-0.0027858181141795454
1742986061.265033,-0.0027762018970094397
1742986061.266986,-0.002769470544990366
1742986061.268939,-0.002771393788424387
1742986061.2708917,-0.002756969462669229
1742986061.2728448,-0.0027435067586310817
1742986061.274798,-0.0027425451369140707
1742986061.2767508,-0.002767547301556345
1742986061.278704,-0.0027300440545929335
1742986061.2806568,-0.002754084597518197
1742986061.28261,-0.0027560078409522184
1742986061.2845628,-0.0027338905414609764
1742986061.286516,-0.0027175429722717964
1742986061.288469,-0.002725235946007881
1742986061.290422,-0.002673308373289312
1742986061.2923748,-0.0026656153995532274
1742986061.2943277,-0.0027040802682336495
1742986061.2962809,-0.0027983191965006825
1742986061.2982337,-0.0028156283874068723
1742986061.3001869,-0.0028040889268027454
1742986061.30214,-0.002782933249028514
1742986061.304093,-0.0027752402752924295
1742986061.306046,-0.002783894870745524
1742986061.307999,-0.0027781251404434613
1742986061.309952,-0.0027627391929712923
1742986061.3119047,-0.0027848564924625348
1742986061.3138578,-0.002773317031858408
1742986061.315811,-0.0027435067586310817
1742986061.3177638,-0.002737737028329018
1742986061.319717,-0.002725235946007881
1742986061.3216698,-0.0027300440545929335
1742986061.323623,-0.002773317031858408
1742986061.3255758,-0.0027656240581223237
1742986061.327529,-0.0027502381106501547
1742986061.329482,-0.00272331270257386
1742986061.331435,-0.0027483148672161344
1742986061.3333879,-0.002737737028329018
1742986061.3353407,-0.002768508923273355
1742986061.3372939,-0.0027502381106501547
1742986061.3392467,-0.002738698650046029
1742986061.3411999,-0.002738698650046029
1742986061.343153,-0.002769470544990366
1742986061.345106,-0.0027627391929712923
1742986061.347059,-0.00275889270610325
1742986061.349012,-0.0027627391929712923
1742986061.350965,-0.0027723554101413976
1742986061.352918,-0.0027762018970094397
1742986061.3548708,-0.002760815949537271
1742986061.356824,-0.002735813784894997
1742986061.3587768,-0.0027560078409522184
1742986061.36073,-0.0027762018970094397
1742986061.3626828,-0.002781971627311503
1742986061.364636,-0.0027502381106501547
1742986061.3665888,-0.0027415835151970605
1742986061.368542,-0.0027579310843862397
1742986061.370495,-0.002756969462669229
1742986061.372448,-0.002756969462669229
1742986061.374401,-0.002780048383877482
1742986061.3763537,-0.0027790867621604715
1742986061.3783069,-0.0027656240581223237
1742986061.3802598,-0.0027617775712542817
1742986061.3822129,-0.002731967298026955
1742986061.384166,-0.0027261975677248915
1742986061.386119,-0.0027560078409522184
1742986061.388072,-0.0027521613540841764
1742986061.390025,-0.002737737028329018
1742986061.391978,-0.0027204278374228282
1742986061.393931,-0.002731967298026955
1742986061.3958838,-0.0027665856798393344
1742986061.3978367,-0.002768508923273355
1742986061.3997898,-0.0027790867621604715
1742986061.401743,-0.002783894870745524
1742986061.4036958,-0.0028012040616517144
1742986061.405649,-0.002782933249028514
1742986061.4076018,-0.0027627391929712923
1742986061.409555,-0.0027069651333846804
1742986061.411508,-0.0027069651333846804
1742986061.413461,-0.002745430002065102
1742986061.415414,-0.0027762018970094397
1742986061.4173667,-0.002771393788424387
1742986061.4193199,-0.0027483148672161344
1742986061.4212728,-0.002737737028329018
1742986061.4232259,-0.0027521613540841764
1742986061.4251788,-0.0027752402752924295
1742986061.427132,-0.0027848564924625348
1742986061.429085,-0.0027723554101413976
1742986061.431038,-0.002773317031858408
1742986061.432991,-0.002780048383877482
1742986061.434944,-0.002770432166707377
1742986061.4368968,-0.002760815949537271
1742986061.4388497,-0.0027136964854037548
1742986061.4408028,-0.0027204278374228282
1742986061.442756,-0.0027579310843862397
1742986061.4447088,-0.0028108202788218197
1742986061.446662,-0.0027983191965006825
1742986061.4486148,-0.0027627391929712923
1742986061.450568,-0.002744468380348092
1742986061.4525208,-0.0027348521631779866
1742986061.454474,-0.0027156197288377756
1742986061.456427,-0.0027136964854037548
1742986061.4583797,-0.002774278653575419
1742986061.4603329,-0.002738698650046029
1742986061.4622858,-0.002768508923273355
1742986061.464239,-0.0027810100055944923
1742986061.4661918,-0.0027790867621604715
1742986061.468145,-0.002774278653575419
1742986061.470098,-0.0027473532454991238
1742986061.472051,-0.0027473532454991238
1742986061.474004,-0.002771393788424387
1742986061.475957,-0.0027771635187264503
1742986061.47791,-0.002781971627311503
1742986061.4798627,-0.002803127305085735
1742986061.4818158,-0.00281178190053883
1742986061.483769,-0.0028338992000300728
1742986061.4857218,-0.0027848564924625348
1742986061.487675,-0.002731005676309944
1742986061.4896278,-0.002714658107120765
1742986061.491581,-0.0027127348636867437
1742986061.4935338,-0.0027483148672161344
1742986061.495487,-0.002753122975801187
1742986061.49744,-0.002770432166707377
1742986061.499393,-0.0027781251404434613
1742986061.5013459,-0.0028146667656898613
1742986061.5032988,-0.0028185132525579038
1742986061.505252,-0.00279447270963264
1742986061.5072048,-0.0027204278374228282
1742986061.509158,-0.0026781164818743645
1742986061.511111,-0.0026800397253083853
1742986061.513064,-0.0027810100055944923
1742986061.515017,-0.0027483148672161344
1742986061.51697,-0.0027560078409522184
1742986061.518923,-0.0027521613540841764
1742986061.5208757,-0.0027752402752924295
1742986061.5228288,-0.0027502381106501547
1742986061.524782,-0.0027627391929712923
1742986061.5267348,-0.002744468380348092
1742986061.528688,-0.002769470544990366
1742986061.5306408,-0.002831014334879041
1742986061.532594,-0.002805050548519756
1742986061.5345469,-0.0027992808182176927
1742986061.5365,-0.0028271678480109984
1742986061.538453,-0.0028021656833687246
1742986061.540406,-0.002769470544990366
1742986061.5423589,-0.002805050548519756
1742986061.5443118,-0.002807935413670788
1742986061.546265,-0.002738698650046029
1742986061.5482178,-0.002754084597518197
1742986061.550171,-0.0027483148672161344
1742986061.5521238,-0.002708888376818702
1742986061.554077,-0.0026694618864212694
1742986061.55603,-0.002699272159648596
1742986061.557983,-0.002817551630840893
1742986061.559936,-0.002807935413670788
1742986061.5618887,-0.002831014334879041
1742986061.5638418,-0.0028338992000300728
1742986061.5657947,-0.002813705143972851
1742986061.5677478,-0.0027848564924625348
1742986061.569701,-0.0027579310843862397
1742986061.5716538,-0.0027348521631779866
1742986061.573607,-0.002716581350554786
1742986061.5755599,-0.0027415835151970605
1742986061.577513,-0.002714658107120765
1742986061.5794659,-0.002697348916214575
1742986061.581419,-0.0027560078409522184
1742986061.5833719,-0.0027579310843862397
1742986061.5853248,-0.0028127435222558405
1742986061.587278,-0.0028338992000300728
1742986061.5892308,-0.0028492851475022413
1742986061.591184,-0.0028627478515403887
1742986061.5931368,-0.0028483235257852307
1742986061.59509,-0.0027723554101413976
1742986061.597043,-0.002754084597518197
1742986061.598996,-0.002735813784894997
1742986061.600949,-0.0027550462192352083
1742986061.602902,-0.002744468380348092
1742986061.6048548,-0.002754084597518197
1742986061.6068077,-0.002796395953066661
1742986061.6087608,-0.0027983191965006825
1742986061.610714,-0.0028242829828599675
1742986061.6126668,-0.002831014334879041
1742986061.61462,-0.002831014334879041
1742986061.6165729,-0.002807935413670788
1742986061.618526,-0.00279351108791563
1742986061.6204789,-0.002745430002065102
1742986061.622432,-0.0027185045939888074
1742986061.624385,-0.002759854327820261
1742986061.6263378,-0.0027762018970094397
1742986061.628291,-0.002731005676309944
1742986061.6302438,-0.00272331270257386
1742986061.632197,-0.0027502381106501547
1742986061.6341498,-0.0027848564924625348
1742986061.636103,-0.0027502381106501547
1742986061.638056,-0.0027290824328759238
1742986061.640009,-0.002735813784894997
1742986061.641962,-0.002693502429346533
1742986061.643915,-0.002769470544990366
1742986061.6458678,-0.002807935413670788
1742986061.6478207,-0.0027637008146883025
1742986061.6497738,-0.002834860821747083
1742986061.651727,-0.002788702979330577
1742986061.6536798,-0.0027415835151970605
1742986061.655633,-0.0027483148672161344
1742986061.6575859,-0.0027415835151970605
1742986061.659539,-0.0027627391929712923
1742986061.6614919,-0.002774278653575419
1742986061.663445,-0.0028300527131620303
1742986061.6653981,-0.00286467109497441
1742986061.6673508,-0.0028637094732573993
1742986061.669304,-0.0028464002823512095
1742986061.6712568,-0.0027396602717630393
1742986061.67321,-0.0026810013470253964
1742986061.6751628,-0.002724274324290871
1742986061.677116,-0.002759854327820261
1742986061.679069,-0.002684847833893438
1742986061.681022,-0.0026886943207614805
1742986061.682975,-0.002731005676309944
1742986061.684928,-0.002767547301556345
1742986061.6868808,-0.002783894870745524
1742986061.6888337,-0.0027896646010475874
1742986061.6907868,-0.0027992808182176927
1742986061.6927397,-0.002852170012653273
1742986061.6946929,-0.0028012040616517144
1742986061.696646,-0.0026906175641955017
1742986061.6985989,-0.0026608072909681743
1742986061.700552,-0.0027040802682336495
1742986061.7025049,-0.0027300440545929335
1742986061.704458,-0.0027579310843862397
1742986061.7064111,-0.0027896646010475874
1742986061.7083638,-0.002796395953066661
1742986061.710317,-0.0027781251404434613
1742986061.7122698,-0.0027992808182176927
1742986061.714223,-0.0028733256904275046
1742986061.7161758,-0.0029560251580904116
1742986061.718129,-0.0029185219111270005
1742986061.7200818,-0.0027492764889331446
1742986061.722035,-0.002682924590459417
1742986061.723988,-0.0026021483662305315
1742986061.725941,-0.002590608905626405
1742986061.727894,-0.0025829159318903204
1742986061.7298467,-0.002603109987947542
1742986061.7317998,-0.0026906175641955017
1742986061.7337527,-0.0027627391929712923
1742986061.7357059,-0.0028146667656898613
1742986061.737659,-0.00281178190053883
1742986061.7396119,-0.002780048383877482
1742986061.741565,-0.002797357574783672
1742986061.7435179,-0.0027954343313496507
1742986061.745471,-0.0027752402752924295
1742986061.747424,-0.002788702979330577
1742986061.749377,-0.0027406218934800494
1742986061.75133,-0.0026713851298552902
1742986061.7532828,-0.002668500264704259
1742986061.755236,-0.0026983105379315858
1742986061.7571888,-0.0027915878444816082
1742986061.759142,-0.0027781251404434613
1742986061.7610948,-0.002790626222764598
1742986061.763048,-0.002767547301556345
1742986061.765001,-0.0028108202788218197
1742986061.766954,-0.002753122975801187
1742986061.768907,-0.002753122975801187
1742986061.7708597,-0.0027550462192352083
1742986061.7728128,-0.0027560078409522184
1742986061.7747657,-0.0027560078409522184
1742986061.7767189,-0.0027550462192352083
1742986061.778672,-0.0027646624364053136
1742986061.7806249,-0.0027617775712542817
1742986061.782578,-0.0027992808182176927
1742986061.7845309,-0.002746391623782113
1742986061.786484,-0.002735813784894997
1742986061.788437,-0.0027502381106501547
1742986061.79039,-0.0027415835151970605
1742986061.792343,-0.0027435067586310817
1742986061.7942958,-0.0027637008146883025
1742986061.796249,-0.002731967298026955
1742986061.7982018,-0.0027338905414609764
1742986061.800155,-0.002768508923273355
1742986061.8021078,-0.002737737028329018
1742986061.804061,-0.0027156197288377756
1742986061.806014,-0.002744468380348092
1742986061.807967,-0.002769470544990366
1742986061.80992,-0.0027473532454991238
1742986061.8118727,-0.0027348521631779866
1742986061.8138258,-0.002716581350554786
1742986061.8157787,-0.0027406218934800494
1742986061.8177319,-0.0027550462192352083
1742986061.819685,-0.0028021656833687246
1742986061.8216379,-0.0028156283874068723
1742986061.823591,-0.0028531316343702834
1742986061.8255439,-0.0028531316343702834
1742986061.827497,-0.0027617775712542817
1742986061.82945,-0.0027127348636867437
1742986061.831403,-0.002708888376818702
1742986061.8333557,-0.002724274324290871
1742986061.8353088,-0.0027185045939888074
1742986061.837262,-0.002710811620252723
1742986061.8392148,-0.0027098499985357123
1742986061.841168,-0.0027271591894419025
1742986061.8431208,-0.0027473532454991238
1742986061.845074,-0.0027098499985357123
1742986061.8470268,-0.002685809455610449
1742986061.84898,-0.002693502429346533
1742986061.850933,-0.0027521613540841764
1742986061.852886,-0.0028002424399347033
1742986061.8548388,-0.002807935413670788
1742986061.8567917,-0.0028002424399347033
1742986061.8587449,-0.0027762018970094397
1742986061.8606977,-0.002768508923273355
1742986061.8626509,-0.0027550462192352083
1742986061.864604,-0.002754084597518197
1742986061.866557,-0.0027406218934800494
1742986061.86851,-0.002731005676309944
1742986061.870463,-0.0027281208111589127
1742986061.872416,-0.0026886943207614805
1742986061.874369,-0.0026819629687424066
1742986061.8763218,-0.002738698650046029
1742986061.878275,-0.002780048383877482
1742986061.8802278,-0.002788702979330577
1742986061.882181,-0.002841592173766157
1742986061.8841338,-0.0027992808182176927
1742986061.886087,-0.00279351108791563
1742986061.8880398,-0.0027781251404434613
1742986061.889993,-0.0027156197288377756
1742986061.891946,-0.0027098499985357123
1742986061.893899,-0.0027329289197439654
1742986061.8958519,-0.0027329289197439654
1742986061.8978047,-0.0027329289197439654
1742986061.8997579,-0.00272331270257386
1742986061.9017107,-0.002724274324290871
1742986061.9036639,-0.0027175429722717964
1742986061.905617,-0.0027281208111589127
1742986061.90757,-0.0027425451369140707
1742986061.909523,-0.002769470544990366
1742986061.911476,-0.0027656240581223237
1742986061.913429,-0.002771393788424387
1742986061.915382,-0.002780048383877482
1742986061.9173348,-0.002770432166707377
1742986061.919288,-0.0027521613540841764
1742986061.9212408,-0.002745430002065102
1742986061.923194,-0.00272331270257386
1742986061.9251468,-0.002707926755101691
1742986061.9271,-0.002736775406612008
1742986061.9290528,-0.002725235946007881
1742986061.931006,-0.0027425451369140707
1742986061.932959,-0.0027665856798393344
1742986061.934912,-0.0027550462192352083
1742986061.9368649,-0.0027656240581223237
1742986061.9388177,-0.0027521613540841764
1742986061.9407709,-0.002737737028329018
1742986061.9427238,-0.002722351080856849
1742986061.9446769,-0.002702157024799628
1742986061.94663,-0.0027579310843862397
1742986061.948583,-0.0027290824328759238
1742986061.950536,-0.0027637008146883025
1742986061.952489,-0.0027781251404434613
1742986061.954442,-0.0027560078409522184
1742986061.956395,-0.002771393788424387
1742986061.9583478,-0.002751199732367166
1742986061.9603007,-0.0027867797358965556
1742986061.9622538,-0.0027877413576135666
1742986061.964207,-0.0027156197288377756
1742986061.9661598,-0.0027290824328759238
1742986061.968113,-0.002731005676309944
1742986061.9700658,-0.002746391623782113
1742986061.972019,-0.0027858181141795454
1742986061.973972,-0.0027925494661986193
1742986061.975925,-0.0027925494661986193
1742986061.977878,-0.002828129469728009
1742986061.9798307,-0.002731005676309944
1742986061.9817839,-0.0027050418899506596
1742986061.9837368,-0.0026906175641955017
1742986061.9856899,-0.0027338905414609764
1742986061.9876428,-0.00275889270610325
1742986061.989596,-0.0027415835151970605
1742986061.991549,-0.002724274324290871
1742986061.993502,-0.002731967298026955
1742986061.995455,-0.002693502429346533
1742986061.997408,-0.0026896559424784906
1742986061.999361,-0.002721389459139839
1742986062.0013137,-0.002721389459139839
1742986062.0032668,-0.002759854327820261
1742986062.00522,-0.0027646624364053136
1742986062.0071728,-0.0027502381106501547
1742986062.009126,-0.00275889270610325
1742986062.0110788,-0.0027492764889331446
1742986062.013032,-0.0027300440545929335
1742986062.0149848,-0.002722351080856849
1742986062.016938,-0.00272331270257386
1742986062.018891,-0.002724274324290871
1742986062.0208437,-0.0027040802682336495
1742986062.0227969,-0.0027261975677248915
1742986062.0247498,-0.002708888376818702
1742986062.026703,-0.002773317031858408
1742986062.0286558,-0.0027261975677248915
1742986062.030609,-0.0027069651333846804
1742986062.032562,-0.002708888376818702
1742986062.034515,-0.002769470544990366
1742986062.036468,-0.0027790867621604715
1742986062.038421,-0.0028021656833687246
1742986062.040374,-0.002790626222764598
1742986062.0423267,-0.0027762018970094397
1742986062.0442798,-0.002768508923273355
1742986062.046233,-0.002783894870745524
1742986062.0481858,-0.0027473532454991238
1742986062.050139,-0.0027261975677248915
1742986062.0520918,-0.0027117732419697335
1742986062.054045,-0.0027271591894419025
1742986062.0559978,-0.0027867797358965556
1742986062.057951,-0.0027521613540841764
1742986062.059904,-0.0027271591894419025
1742986062.0618567,-0.00272331270257386
1742986062.0638099,-0.0027762018970094397
1742986062.0657628,-0.002753122975801187
1742986062.067716,-0.002770432166707377
1742986062.0696688,-0.0027656240581223237
1742986062.071622,-0.0027627391929712923
1742986062.073575,-0.002744468380348092
1742986062.075528,-0.0027560078409522184
1742986062.077481,-0.0027867797358965556
1742986062.079434,-0.002725235946007881
1742986062.081387,-0.002735813784894997
1742986062.0833397,-0.0027627391929712923
1742986062.0852928,-0.0027435067586310817
1742986062.087246,-0.0027136964854037548
1742986062.0891988,-0.00268773269904447
1742986062.091152,-0.002640613234910953
1742986062.0931048,-0.002647344586930027
1742986062.095058,-0.0026906175641955017
1742986062.0970109,-0.0027492764889331446
1742986062.098964,-0.002699272159648596
1742986062.100917,-0.002731005676309944
1742986062.10287,-0.0027627391929712923
1742986062.1048229,-0.0027656240581223237
1742986062.1067758,-0.002736775406612008
1742986062.108729,-0.002731005676309944
1742986062.1106818,-0.0027185045939888074
1742986062.112635,-0.002738698650046029
1742986062.114588,-0.0027925494661986193
1742986062.116541,-0.0028002424399347033
1742986062.118494,-0.0027646624364053136
1742986062.120447,-0.002753122975801187
1742986062.1224,-0.0027425451369140707
1742986062.124353,-0.0028069737919537772
1742986062.1263058,-0.0027560078409522184
1742986062.1282587,-0.002771393788424387
1742986062.1302118,-0.0027762018970094397
1742986062.132165,-0.0027617775712542817
1742986062.1341178,-0.0027502381106501547
1742986062.136071,-0.002731005676309944
1742986062.1380239,-0.0027348521631779866
1742986062.139977,-0.002737737028329018
1742986062.1419299,-0.002754084597518197
1742986062.143883,-0.002767547301556345
1742986062.1458359,-0.002774278653575419
1742986062.1477888,-0.0027665856798393344
1742986062.149742,-0.002768508923273355
1742986062.1516948,-0.0027560078409522184
1742986062.153648,-0.0027656240581223237
1742986062.1556008,-0.0027656240581223237
1742986062.157554,-0.002768508923273355
1742986062.159507,-0.002782933249028514
1742986062.16146,-0.0027637008146883025
1742986062.163413,-0.002753122975801187
1742986062.165366,-0.002722351080856849
1742986062.1673188,-0.002710811620252723
1742986062.1692717,-0.0026694618864212694
1742986062.1712248,-0.0026608072909681743
1742986062.173178,-0.0027060035116676703
1742986062.1751308,-0.002822359739425946
1742986062.177084,-0.002831975956596051
1742986062.1790369,-0.00281178190053883
1742986062.18099,-0.0027925494661986193
1742986062.1829429,-0.0027617775712542817
1742986062.184896,-0.0027656240581223237
1742986062.1868489,-0.0028002424399347033
1742986062.1888018,-0.002831975956596051
1742986062.190755,-0.002780048383877482
1742986062.1927078,-0.0028300527131620303
1742986062.194661,-0.0027762018970094397
1742986062.1966138,-0.002731005676309944
1742986062.198567,-0.0027271591894419025
1742986062.20052,-0.0027261975677248915
1742986062.202473,-0.0027204278374228282
1742986062.204426,-0.002845438660634199
1742986062.206379,-0.0028858267727486417
1742986062.2083318,-0.002868517581842452
1742986062.2102847,-0.0028396689303321356
1742986062.2122378,-0.0028213981177089356
1742986062.214191,-0.00279351108791563
1742986062.2161438,-0.0027867797358965556
1742986062.218097,-0.0027579310843862397
1742986062.2200499,-0.002774278653575419
1742986062.222003,-0.0027954343313496507
1742986062.2239559,-0.0028271678480109984
1742986062.225909,-0.0028300527131620303
1742986062.2278621,-0.0028127435222558405
1742986062.2298148,-0.00279447270963264
1742986062.231768,-0.002760815949537271
1742986062.2337208,-0.0027011954030826176
1742986062.235674,-0.002684847833893438
1742986062.2376268,-0.002746391623782113
1742986062.23958,-0.0027473532454991238
1742986062.241533,-0.0027050418899506596
1742986062.243486,-0.0026723467515723013
1742986062.245439,-0.002647344586930027
1742986062.247392,-0.0025858007970413523
1742986062.249345,-0.0025742613364372257
1742986062.2512977,-0.0025473359283609306
1742986062.2532508,-0.002603109987947542
1742986062.2552037,-0.0026434981000619845
1742986062.2571568,-0.0027502381106501547
1742986062.25911,-0.002834860821747083
1742986062.2610629,-0.002843515417200178
1742986062.263016,-0.00291756028940999
1742986062.2649689,-0.0029204451545610213
1742986062.266922,-0.0028848651510316316
1742986062.2688751,-0.0028704408252764727
1742986062.2708278,-0.0027992808182176927
1742986062.272781,-0.0027646624364053136
1742986062.2747338,-0.002691579185912512
1742986062.276687,-0.002628112152589816
1742986062.2786398,-0.0026079180965325947
1742986062.280593,-0.002615611070268679
1742986062.2825458,-0.0026079180965325947
1742986062.284499,-0.0026069564748155845
1742986062.286452,-0.002697348916214575
1742986062.288405,-0.002769470544990366
1742986062.290358,-0.002856978121238326
1742986062.2923107,-0.0028954429899187475
1742986062.2942638,-0.0029127521808249373
1742986062.2962167,-0.0029050592070888528
1742986062.2981699,-0.002893519746484726
1742986062.300123,-0.0028598629863893573
1742986062.3020759,-0.00279351108791563
1742986062.304029,-0.0027271591894419025
1742986062.3059819,-0.002587724040475373
1742986062.307935,-0.002577146201588257
1742986062.309888,-0.0026415748566279637
1742986062.3118408,-0.002626188909155795
1742986062.313794,-0.0026319586394578584
1742986062.3157468,-0.002639651613193943
1742986062.3177,-0.0026290737743068266
1742986062.3196528,-0.002685809455610449
1742986062.321606,-0.0027290824328759238
1742986062.3235588,-0.002820436495991925
1742986062.325512,-0.0028723640687104944
1742986062.327465,-0.0028992894767867895
1742986062.329418,-0.0029137138025419475
1742986062.331371,-0.0028983278550697793
1742986062.3333237,-0.0028992894767867895
1742986062.3352768,-0.002856978121238326
1742986062.3372297,-0.0028002424399347033
1742986062.3391829,-0.0027560078409522184
1742986062.341136,-0.002684847833893438
1742986062.3430889,-0.0026319586394578584
1742986062.345042,-0.0026271505308728058
1742986062.3469949,-0.002677154860157354
1742986062.348948,-0.002640613234910953
1742986062.350901,-0.002610802961683626
1742986062.352854,-0.0026194575571367213
1742986062.354807,-0.0026088797182496053
1742986062.3567598,-0.0026194575571367213
1742986062.358713,-0.0026098413399666155
1742986062.3606658,-0.0027069651333846804
1742986062.362619,-0.0027338905414609764
1742986062.3645718,-0.002738698650046029
1742986062.366525,-0.002781971627311503
1742986062.368478,-0.002783894870745524
1742986062.370431,-0.002760815949537271
1742986062.372384,-0.002735813784894997
1742986062.374337,-0.002737737028329018
1742986062.3762898,-0.002744468380348092
1742986062.3782427,-0.00275889270610325
1742986062.3801959,-0.0027646624364053136
1742986062.382149,-0.002780048383877482
1742986062.3841019,-0.0028127435222558405
1742986062.386055,-0.002831975956596051
1742986062.3880079,-0.002805050548519756
1742986062.389961,-0.0028338992000300728
1742986062.391914,-0.0028925581247677156
1742986062.393867,-0.0028819802858805997
1742986062.3958197,-0.0028819802858805997
1742986062.3977728,-0.0029223683979950426
1742986062.399726,-0.0029214067762780315
1742986062.4016788,-0.0029223683979950426
1742986062.403632,-0.003026223543432181
1742986062.4055848,-0.003114692741397151
1742986062.407538,-0.0031041149025100353
1742986062.409491,-0.0030656500338296136
1742986062.411444,-0.002956986779807422
1742986062.413397,-0.0028617862298233785
1742986062.41535,-0.002710811620252723
1742986062.4173028,-0.002539642954624846
1742986062.4192557,-0.0024752142995851396
1742986062.4212089,-0.0024127088879794542
1742986062.4231617,-0.002366551045562948
1742986062.4251149,-0.002318469959712421
1742986062.427068,-0.0024040542925263596
1742986062.429021,-0.0025319499808887616
1742986062.430974,-0.0025213721420016457
1742986062.432927,-0.002560798632399078
1742986062.43488,-0.002587724040475373
1742986062.4368327,-0.002633881882891879
1742986062.4387858,-0.0027271591894419025
1742986062.440739,-0.0027271591894419025
1742986062.4426918,-0.002746391623782113
1742986062.444645,-0.002745430002065102
1742986062.4465978,-0.002737737028329018
1742986062.448551,-0.002760815949537271
1742986062.4505038,-0.0027204278374228282
1742986062.452457,-0.0026906175641955017
1742986062.45441,-0.0026675386429872486
1742986062.456363,-0.002714658107120765
1742986062.4583158,-0.0027338905414609764
1742986062.4602687,-0.002682924590459417
1742986062.4622219,-0.0026838862121764274
1742986062.4641747,-0.0027338905414609764
1742986062.4661279,-0.0027637008146883025
1742986062.468081,-0.0027665856798393344
1742986062.470034,-0.002770432166707377
1742986062.471987,-0.0027752402752924295
1742986062.47394,-0.002781971627311503
1742986062.475893,-0.002788702979330577
1742986062.477846,-0.0028300527131620303
1742986062.4797988,-0.002845438660634199
1742986062.481752,-0.0028964046116357577
1742986062.4837048,-0.002903135963654832
1742986062.485658,-0.0029098673156739054
1742986062.4876108,-0.002854093256087294
1742986062.489564,-0.0028040889268027454
1742986062.4915168,-0.0027781251404434613
1742986062.49347,-0.0027646624364053136
1742986062.495423,-0.002822359739425946
1742986062.497376,-0.002828129469728009
1742986062.499329,-0.002893519746484726
1742986062.5012817,-0.0028848651510316316
1742986062.5032349,-0.0028704408252764727
1742986062.5051877,-0.0029204451545610213
1742986062.5071409,-0.0029117905591079262
