biceps,triceps,t
-0.00679969927296042,-0.000294424535240978,1713350763.72188
-0.00675435876473784,-0.000281851331237704,1713350763.72235
-0.0067029120400548,-0.000254156620940194,1713350763.74533
-0.00674705067649484,-0.00026759528554976,1713350763.74673
-0.00654938910156488,-0.00027050418430008,1713350763.78123
-0.00670271972194314,-0.000283582252450287,1713350763.78269
-0.00671507650986314,-0.000251656398177147,1713350763.8406
-0.00670892233029008,-0.000324355001794174,1713350763.84188
-0.00674248300492764,-0.000241679575992748,1713350763.84322
-0.00671288883313537,-0.000307983398670331,1713350763.84435
-0.00672543793916702,-0.000288534589344636,1713350763.89727
-0.00673935748636723,-0.0003724601410795,1713350763.89901
-0.00673392415046692,-0.000324883905705065,1713350763.92937
-0.0067152688279748,-0.000363372819265351,1713350763.93107
-0.0067897466942668,-0.000366305757779628,1713350763.96888
-0.00674012675881386,-0.000349212932633236,1713350763.9699
-0.00670560449361801,-0.000361641898052767,1713350764.01329
-0.00672305794432759,-0.000357747310772538,1713350764.01485
-0.00670296000316739,-0.000372123555280268,1713350764.03722
-0.00670168595388532,-0.000373037095414475,1713350764.03881
-0.00674212211742997,-0.000379455916117877,1713350764.09277
-0.00670716725289822,-0.000434148154454306,1713350764.09391
-0.006679592654109,-0.000380585843231529,1713350764.12095
-0.0066496143117547,-0.000360343692591414,1713350764.12299
-0.00664151273667812,-0.000358300254447386,1713350764.16084
-0.0066455751657486,-0.000400803925003856,1713350764.16242
-0.00660787988454104,-0.000371811038348824,1713350764.20145
-0.00664196908473969,-0.000363324739737436,1713350764.20226
-0.00655991910025477,-0.000303535896819085,1713350764.23266
-0.00662776129320264,-0.00042441175901331,1713350764.23408
-0.0066439644433558,-0.000362194812623784,1713350764.28521
-0.00665257126092911,-0.000364142091711983,1713350764.28625
-0.00656417431309819,-0.000370032037608325,1713350764.33789
-0.00662516476586461,-0.000393591762986034,1713350764.33887
-0.00665985560044646,-0.000398159463657066,1713350764.42181
-0.00668319873511791,-0.000381258956622332,1713350764.42301
-0.00659559527412057,-0.000385177583666518,1713350764.44918
-0.0065739587880671,-0.000383687060093507,1713350764.45082
-0.0066409595310688,-0.000390875182347372,1713350764.47379
-0.00667129876092076,-0.000382701400667429,1713350764.4752
-0.00654506171122193,-0.000390706903999671,1713350764.49664
-0.00661653419956565,-0.000367026979802176,1713350764.49782
-0.00664172880351543,-0.000343803811119869,1713350764.52901
-0.00662771333009005,-0.000378133699996397,1713350764.53019
-0.00659333541989327,-0.000370512861991301,1713350764.56095
-0.00661730347201228,-0.000369334855349734,1713350764.56256
-0.00667401542887092,-0.000376498937839642,1713350764.59281
-0.00658936845138669,-0.000366185558959842,1713350764.59446
-0.00659506628289819,-0.000358372373739257,1713350764.64459
-0.00660725496709347,-0.000364238279871643,1713350764.64561
-0.00667468830943108,-0.000369959918316454,1713350764.67705
-0.00658857543021441,-0.000355150928953663,1713350764.67857
-0.00661372160539031,-0.000362867955118418,1713350764.7247
-0.00658359890803695,-0.000377941381884739,1713350764.72567
-0.00662095798179507,-0.000374335300875828,1713350764.7571
-0.00656585674732924,-0.000373590039089322,1713350764.7585
-0.00659052236005664,-0.00036390169407241,1713350764.80208
-0.0066295163705945,-0.000386908504879102,1713350764.80303
-0.00659600365906954,-0.000396236224332824,1713350764.87339
-0.00660379277542234,-0.000417800591094419,1713350764.87493
-0.00658119469881058,-0.000378975120838732,1713350764.92085
-0.00657275645062327,-0.000372868817066774,1713350764.92246
-0.00658929627388716,-0.000329115020576864,1713350764.95306
-0.00659234961494803,-0.000439749623183161,1713350764.95477
-0.00658831093460321,-0.000391476205550134,1713350764.98116
-0.00660595670342445,-0.0003908030630555,1713350764.98284
-0.00658004079014063,-0.000389360619010404,1713350765.00471
-0.00659650843590498,-0.000393495603930205,1713350765.00617
-0.00660412944853306,-0.00036267563700676,1713350765.0612
-0.0066025429405272,-0.000422536570113152,1713350765.06267
-0.00660049915313721,-0.00040412152884528,1713350765.07731
-0.0065963645465672,-0.000390202039852738,1713350765.07896
-0.00659172469750047,-0.000373085174942389,1713350765.13283
-0.00658573862165213,-0.000428234197897837,1713350765.13391
-0.00658206036314368,-0.000411814486142248,1713350765.15747
-0.00658294977620244,-0.000411718327086419,1713350765.15876
-0.00658739730715752,-0.000408689229516313,1713350765.26492
-0.00658210832625628,-0.000402222329284996,1713350765.26681
-0.00656032748520374,-0.00040712658665143,1713350765.30922
-0.00657114572823048,-0.000407150626415387,1713350765.31044
-0.00654200883582234,-0.000405131228035316,1713350765.3168
-0.00659396033734083,-0.000419435353251174,1713350765.31837
-0.00656936690211296,-0.000415757152950391,1713350765.32483
-0.00656790053471923,-0.000413761794334278,1713350765.32619
-0.00656580878421664,-0.000417896750150248,1713350765.35293
-0.00655042286962271,-0.000420733529608697,1713350765.35467
-0.00654888432472944,-0.000409747008234262,1713350765.4009
-0.00656268373131752,-0.000409747008234262,1713350765.4025
-0.00656321225687861,-0.000447899365099147,1713350765.43679
-0.00656261155381799,-0.00041647837497294,1713350765.49284
-0.00657193921506405,-0.000418401614297181,1713350765.50872
-0.00658355094492435,-0.000433619279647246,1713350765.51068
-0.00656001502647996,-0.000465809571323916,1713350765.52907
-0.00655496632680297,-0.000433090375736356,1713350765.53057
-0.00656249141320586,-0.000430902699008584,1713350765.58086
-0.00653268117457628,-0.000416863011196256,1713350765.58303
-0.00650770263746381,-0.00040289547177963,1713350765.60528
-0.00657965615391731,-0.000436456059105694,1713350765.60683
-0.00645575113594532,-0.000396620889659971,1713350765.66867
-0.00621702848002315,-0.000371185975382105,1713350765.66972
-0.00659564323723316,-0.000445014477008954,1713350765.69712
-0.00649219658225775,-0.000417896750150248,1713350765.69876
-0.00629727588966489,-0.000377124000806361,1713350765.72085
-0.00641639670357108,-0.000414507027016953,1713350765.72244
-0.00642113294452429,-0.000423089513788,1713350765.78165
-0.00644627911970019,-0.000414915732108057,1713350765.78288
-0.00649337470531464,-0.000462083262391388,1713350765.80069
-0.00631747022271156,-0.000426310958573595,1713350765.80192
-0.00615247990936041,-0.000403784972149879,1713350765.84501
-0.00651397742331028,-0.00048994628014043,1713350765.84675
-0.00658196397125721,-0.00044354802230373,1713350765.87319
-0.00645106332376599,-0.000444798119133338,1713350765.87463
-0.00613517081364989,-0.000435903115430847,1713350765.92506
-0.00624099699780345,-0.000378181779524311,1713350765.92652
-0.00603456096723676,-0.000322359643178061,1713350765.96487
-0.00656436663120985,-0.000439124560216442,1713350765.96629
-0.00648681167513132,-0.000442995078628883,1713350766.00934
-0.00619553634896874,-0.000308223796309903,1713350766.04873
-0.00638877414166927,-0.000427561055403203,1713350766.10059
-0.00615423452109098,-0.000375248841010034,1713350766.10212
-0.00626883609220386,-0.000333947187755257,1713350766.13263
-0.00625611841678619,-0.000413785834098235,1713350766.13363
-0.00639180326834321,-0.0003988326061517,1713350766.15316
-0.00622714962810278,-0.000382412923499942,1713350766.15472
-0.00587673485279083,-0.000370681140339002,1713350766.1774
-0.00658920034766197,-0.000469680089736357,1713350766.17895
-0.00600902969017625,-0.000362651597242802,1713350766.22902
-0.0065184491686523,-0.000443836499471217,1713350766.23042
-0.00620358996093273,-0.00036532009835355,1713350766.25273
-0.00602376693859696,-0.000350078393239528,1713350766.25422
-0.00625244015827775,-0.000356689532054588,1713350766.31705
-0.00635732943192124,-0.000376138341380283,1713350766.31864
-0.00604256661608815,-0.000324018445098773,1713350766.346
-0.00652734376490116,-0.000453933520475403,1713350766.34678
-0.00636598374694586,-0.000407583371270448,1713350766.38525
-0.00629061693325639,-0.000378205819288269,1713350766.38675
-0.00625465204939246,-0.000371161935618147,1713350766.40939
-0.0063125416636467,-0.000388495187507942,1713350766.41127
-0.00635631941258907,-0.000394793809391558,1713350766.4647
-0.0063342503271997,-0.000389288499718532,1713350766.46615
-0.00630482472479343,-0.000384913146262988,1713350766.54065
-0.00635850708931685,-0.000396596849896014,1713350766.5423
-0.00643173465505242,-0.000409867207054049,1713350766.56129
-0.00636184867471457,-0.000393135007470846,1713350766.56279
-0.00638358155265451,-0.000433258654084057,1713350766.59349
-0.00637771561741829,-0.000388879823731259,1713350766.62205
-0.00638194661587477,-0.000403568585170433,1713350766.64135
-0.00638225907459855,-0.0004068621492479,1713350766.64273
-0.00639882311224937,-0.000399385549826548,1713350766.6696
-0.00637521548196673,-0.000387341220630333,1713350766.67113
-0.0064073815010488,-0.000440951640484855,1713350766.69323
-0.00639348616823554,-0.000381331105018035,1713350766.69482
-0.00639403937384486,-0.000411429849918932,1713350766.72124
-0.00640045804902911,-0.000351905473507941,1713350766.72288
-0.00646317983046174,-0.000481580151244998,1713350766.76121
-0.00642045959830284,-0.000513481965754181,1713350766.76262
-0.00641500251367688,-0.000451505446108058,1713350766.81333
-0.00640726136043668,-0.000430878659244627,1713350766.81483
-0.00640468904748559,-0.000396548741264269,1713350766.86881
-0.00640367949381471,-0.000415348447859287,1713350766.87047
-0.00642459467053413,-0.000467155827209353,1713350766.91691
-0.00640750164166093,-0.00043181623914279,1713350766.91821
-0.00643094116821885,-0.000439917901530862,1713350766.93732
-0.00643950002267957,-0.000435037654824555,1713350766.93872
-0.00644764956086874,-0.000438643735833466,1713350766.95275
-0.0064505822956562,-0.000439364957856014,1713350766.95419
-0.00643190322443843,-0.000430181476986036,1713350767.04088
-0.00644284160807729,-0.000444124976638705,1713350767.04235
-0.00643772073090076,-0.000441288197180256,1713350767.06092
-0.00641644513234496,-0.000439725583419204,1713350767.06253
-0.00642245495691896,-0.000436119502410293,1713350767.10919
-0.00642548408359289,-0.000444990437244996,1713350767.11059
-0.00643245596438646,-0.000457154965260997,1713350767.1286
-0.00632348004728556,-0.000413088651839644,1713350767.13023
-0.00647493544965982,-0.000467444304376841,1713350767.1729
-0.00642341654747725,-0.000463934411527589,1713350767.17461
-0.00640406413003802,-0.000455159606644884,1713350767.20133
-0.00640565063804388,-0.000468237645691261,1713350767.20295
-0.00640238123014569,-0.000451769883511588,1713350767.24882
-0.00642728712409735,-0.000463838223367929,1713350767.24998
-0.00634927581995726,-0.000443932658527046,1713350767.30465
-0.0064222146756947,-0.000464679644210264,1713350767.30612
-0.00636675301939249,-0.000455063447589055,1713350767.34484
-0.00650960206985474,-0.000482109055155888,1713350767.34641
-0.00639762124046683,-0.00045898204552941,1713350767.35268
-0.00617447681725025,-0.000479031848954037,1713350767.35415
-0.00647034402936697,-0.000495139043778181,1713350767.45327
-0.00648589804768562,-0.000484128453535959,1713350767.45484
-0.00624361727386713,-0.000435157853644341,1713350767.489
-0.00630761357024312,-0.000447610858827829,1713350767.49046
-0.00632247049361467,-0.000485931494040415,1713350767.52113
-0.00647767633199692,-0.000481315713841468,1713350767.52248
-0.0063765374943614,-0.000450375518994406,1713350767.54146
-0.00621690833941102,-0.000401020282879472,1713350767.54263
-0.00586627703160048,-0.000398808566387743,1713350767.56149
-0.00622924137860537,-0.000450135121354833,1713350767.56262
-0.00578201515600085,-0.00029307825025171,1713350767.61295
-0.00626494130119681,-0.000484440970467404,1713350767.61434
-0.00572936609387398,-0.000381499383365735,1713350767.64516
-0.0062599889934063,-0.000447514699772,1713350767.64655
-0.00631049834191799,-0.000454895140137523,1713350767.70248
-0.00646195374429226,-0.000515453284606338,1713350767.70424
-0.00561923673376441,-0.000314859003992751,1713350767.72914
-0.00625263247638941,-0.000507664168253541,1713350767.73061
-0.00599972624331713,-0.000367627973901108,1713350767.7814
-0.00566517794504762,-0.000384408282116055,1713350767.78292
-0.00587274413555861,-0.000401669385610148,1713350767.80079
-0.00626866752281785,-0.000456577981822193,1713350767.80232
-0.00627696188166738,-0.000471483130240813,1713350767.84127
-0.00572369247674942,-0.000424844474764541,1713350767.84287
-0.00597919570282102,-0.000397678668377921,1713350767.88922
-0.00629251589998603,-0.000471651408588514,1713350767.89082
-0.00550009170547128,-0.000319643062539399,1713350767.90917
-0.00610973592847586,-0.000386259402148426,1713350767.91085
-0.00612699659541249,-0.000430902699008584,1713350767.95826
-0.00607468467205763,-0.000461338029708713,1713350767.95917
-0.00588012440130115,-0.00039592370740138,1713350768.01723
-0.00581254670396447,-0.000366401916835457,1713350768.01886
-0.00600792421028018,-0.000422945275204256,1713350768.04097
-0.00608064653351903,-0.00038604304427281,1713350768.04254
-0.00607506930828095,-0.000392125308280811,1713350768.10108
-0.00607677595689893,-0.000413040572311729,1713350768.10262
-0.00611552968621254,-0.000405780330765992,1713350768.11668
-0.00620741257444024,-0.00041611774940975,1713350768.11816
-0.00601052027195692,-0.000388230721000582,1713350768.17266
-0.00610923068597913,-0.000417512113926932,1713350768.17423
-0.00626049377024174,-0.000438403338193893,1713350768.19268
-0.00614271918311715,-0.000409194093663245,1713350768.19424
-0.00615404220297933,-0.000414050271501765,1713350768.31303
-0.00618204986676574,-0.000427152379415929,1713350768.31449
-0.0061416132375598,-0.000397919066017494,1713350768.33273
-0.00615683104842901,-0.00040871326928027,1713350768.33404
-0.00617207260802388,-0.00042150283115916,1713350768.3661
-0.00617079855874181,-0.000425926293246448,1713350768.36685
-0.006195945199579,-0.000445903977379203,1713350768.40519
-0.00618120841681957,-0.000428690953413025,1713350768.40732
-0.00618366058915854,-0.000436191621702164,1713350768.42485
-0.00613716617226601,-0.000422007695306093,1713350768.42649
-0.00623453035950661,-0.000456145266070962,1713350768.44887
-0.006186593323946,-0.000442273856606334,1713350768.45033
-0.00619428651407361,-0.000441913260146976,1713350768.48513
-0.00620027258992195,-0.00045210644020699,1713350768.48644
-0.00620022416114807,-0.00045475090155378,1713350768.56117
-0.00620423909276724,-0.000468261685455218,1713350768.56294
-0.00620596995577216,-0.00043429242214188,1713350768.58128
-0.00621967297047377,-0.00046542490599677,1713350768.58292
-0.00620375806465745,-0.000465617224108428,1713350768.59705
-0.00619808491319418,-0.000435494439443573,1713350768.59848
-0.00623945845291019,-0.000481940776808187,1713350768.65799
-0.00624804105609655,-0.000520477769896388,1713350768.65951
-0.00623294338583946,-0.000497326720505953,1713350768.68118
-0.00621827878057957,-0.000466626952402294,1713350768.68265
-0.00621404778212309,-0.000452515145298094,1713350768.78927
-0.00621392764151096,-0.000472204352263361,1713350768.79084
-0.00622606789693236,-0.000478022149764001,1713350768.80509
-0.00622039427980781,-0.000473045773105696,1713350768.80668
-0.0062261400744319,-0.000462612166302279,1713350768.8411
-0.00625821016728878,-0.000481772469356656,1713350768.8426
-0.00621803849935532,-0.000462083262391388,1713350768.86254
-0.00622133212164044,-0.000481940776808187,1713350768.86327
-0.0062562869861722,-0.000485402590129525,1713350768.88542
-0.00622513052076101,-0.000488479796331376,1713350768.88697
-0.00624193483963609,-0.000456265464890748,1713350768.97711
-0.00623133266344667,-0.000471699488116428,1713350768.9783
-0.00622815964743495,-0.000500139431096613,1713350768.98523
-0.00619120895862579,-0.000485787255456671,1713350768.98668
-0.00627157650887966,-0.000484152493299916,1713350768.99673
-0.00620753271505237,-0.00048429673188366,1713350768.99828
-0.00620734039694071,-0.000479969428852201,1713350769.03279
-0.00615651858970523,-0.000474969012429938,1713350769.03424
-0.00627931766211987,-0.00050554855260998,1713350769.07678
-0.00624486757442355,-0.000480498332763091,1713350769.07857
-0.00623662164434791,-0.000487037352286279,1713350769.12988
-0.00622315891087055,-0.00048614785191603,1713350769.13092
-0.00626664841547608,-0.00050643808208406,1713350769.16145
-0.00612000096589327,-0.000480113696539775,1713350769.1628
-0.00629439111799002,-0.000524348288308829,1713350769.21321
-0.00618115998804569,-0.00048191673704423,1713350769.21478
-0.00626003695651889,-0.000522016372997314,1713350769.26127
-0.00630569038912654,-0.000515212886966765,1713350769.26307
-0.0059616700746119,-0.000418714131228626,1713350769.28908
-0.00630989717319608,-0.000524035771377385,1713350769.29086
-0.00617500580847263,-0.000482301373267546,1713350769.33771
-0.00618327595293522,-0.00048165227053687,1713350769.36095
-0.00625212769955397,-0.000486869073938578,1713350769.38091
-0.0062231351621449,-0.000489753962028772,1713350769.38259
-0.0058567812666297,-0.000416406255681068,1713350769.4132
-0.00561637571081519,-0.000414507027016953,1713350769.41487
-0.00561885163187981,-0.000426695594796911,1713350769.47709
-0.00552704092115164,-0.000415877351770178,1713350769.47882
-0.00622717384248972,-0.000511630845721811,1713350769.48567
-0.00612214067950845,-0.000449582206783816,1713350769.48663
-0.00636985432356596,-0.000537234009243548,1713350769.53736
-0.00496276142075658,-0.000234323175391182,1713350769.53889
-0.00571289844810963,-0.000404506165068597,1713350769.56478
-0.00589214451611042,-0.000460448529338464,1713350769.56648
-0.0056341658346355,-0.000377941381884739,1713350769.60363
-0.00586553197354078,-0.000407679530326277,1713350769.60524
-0.00570518150925636,-0.000365776853868738,1713350769.64884
-0.0060373255982995,-0.000445687619503588,1713350769.64978
-0.00529834348708391,-0.000318993959808722,1713350769.67665
-0.0056542637757957,-0.000389336579246446,1713350769.67809
-0.00612062588334084,-0.000471362931421027,1713350769.70924
-0.0057360976934433,-0.000366954860510305,1713350769.71073
-0.00561930844560266,-0.000348611909430474,1713350769.78472
-0.00556096201762557,-0.000344116328051314,1713350769.78609
-0.00628201011568308,-0.00045210644020699,1713350769.7968
-0.00571554293856025,-0.000341015111189336,1713350769.79794
-0.00535308383405209,-0.000292188749881461,1713350769.84879
-0.0061008888296783,-0.0004534286854323,1713350769.84978
-0.00579172745347023,-0.000368253036867827,1713350769.87726
-0.0055738240480423,-0.000351088092429563,1713350769.90089
-0.00582386972382665,-0.000388278800528497,1713350769.92089
-0.00598648004233837,-0.000436023314250633,1713350769.92237
-0.00587899470701814,-0.000390682864235714,1713350769.95711
-0.00585757428780198,-0.000385754538001493,1713350769.9585
-0.00582495145499706,-0.000367075059330091,1713350769.98914
-0.00595967471599579,-0.000414434907725081,1713350769.99088
-0.00593455228954554,-0.000407102546887472,1713350770.07291
-0.00601059244945645,-0.000400467368308455,1713350770.07423
-0.00589483743533492,-0.000412078952649608,1713350770.13263
-0.00595513079315424,-0.00041611774940975,1713350770.13359
-0.0059514045715332,-0.000417632312746719,1713350770.15328
-0.00592344533652067,-0.000419050717027858,1713350770.15472
-0.00597873888909817,-0.000438884162576869,1713350770.17752
-0.00599015783518553,-0.000430998858064413,1713350770.17905
-0.00598643161356449,-0.000437946582678705,1713350770.20921
-0.00598532566800714,-0.000443499942775816,1713350770.2109
-0.00599369220435619,-0.000458909926237538,1713350770.23286
-0.00601619388908148,-0.000461746705695987,1713350770.23397
-0.00601931940764189,-0.000457347283372656,1713350770.28078
-0.00600662594661117,-0.000430109357694164,1713350770.28217
-0.00601871823891997,-0.000491965678520501,1713350770.38466
-0.00602232431992888,-0.00047018492477946,1713350770.38622
-0.00601821346208453,-0.000479103968245909,1713350770.46476
-0.00601713173091412,-0.000446480960818008,1713350770.46622
-0.00601869402453303,-0.000484633317682892,1713350770.49329
-0.00603811908513308,-0.000483214913401753,1713350770.49509
-0.00608088728040457,-0.000509371049702168,1713350770.54131
-0.00605437019839883,-0.000525406037922949,1713350770.54265
-0.00603999430313706,-0.000469295424409211,1713350770.62106
-0.00604198966175318,-0.000497855595313013,1713350770.62263
-0.00604754267260432,-0.000491821439936757,1713350770.64095
-0.00604836037382484,-0.000487590295961127,1713350770.6424
-0.00605730339884758,-0.00048323895316571,1713350770.67254
-0.0060313637368381,-0.000489729922264814,1713350770.67419
-0.00606208713725209,-0.000498360430356115,1713350770.69703
-0.00609122449532151,-0.000501293397974223,1713350770.69841
-0.00605737557634711,-0.000498697045259178,1713350770.72536
-0.00611016852781177,-0.000471266772365198,1713350770.72661
-0.00606088526546955,-0.000469848368084058,1713350770.78078
-0.00607545394450426,-0.000515765801537782,1713350770.78229
-0.0060574715025723,-0.000497038243338466,1713350770.80511
-0.00605350499972701,-0.000495066924486309,1713350770.80678
-0.00612156372517347,-0.00048085892922245,1713350770.83271
-0.00600866926833987,-0.00048730181879364,1713350770.83392
-0.0060576400719583,-0.000491292506922036,1713350770.85323
-0.00606208713725209,-0.000490739592351019,1713350770.85462
-0.00607338640838861,-0.000493095547426492,1713350770.88086
-0.00605980353429914,-0.000480378133943304,1713350770.88234
-0.00609076768159866,-0.000499778834637255,1713350770.9132
-0.00605939468368888,-0.000498288311064243,1713350770.91459
-0.00609281100332737,-0.000509827805217356,1713350770.96486
-0.00604184530675411,-0.000502687762491405,1713350770.96641
-0.0059239505790174,-0.00047309385263361,1713350770.98565
-0.00607944466173649,-0.000522304850164801,1713350770.98702
-0.00624950742349029,-0.00056420749751851,1713350771.03253
-0.0061239437200129,-0.000485162192489952,1713350771.03394
-0.00605487497523427,-0.000481628230772913,1713350771.06518
-0.00612387154251337,-0.000517640961334109,1713350771.06629
-0.00604506675153971,-0.000461121642729268,1713350771.08519
-0.00581362843513489,-0.000417848670622334,1713350771.08655
-0.00612774211913347,-0.000483984214952216,1713350771.1126
-0.00579285714775324,-0.000443067197920755,1713350771.11385
-0.00605006702244282,-0.000482036935864016,1713350771.15684
-0.00556877534836531,-0.000378085620468482,1713350771.15805
-0.00602376693859696,-0.000467853009467945,1713350771.21353
-0.00565702840685844,-0.000398255622712895,1713350771.21521
-0.00572405336424708,-0.000403304147766903,1713350771.2368
-0.0060345851816237,-0.000446168443886563,1713350771.23783
-0.00536683481186628,-0.000321229745168239,1713350771.29281
-0.0059322202578187,-0.000478286587167531,1713350771.29408
-0.00623477064073086,-0.00048879231326282,1713350771.31313
-0.00583665911108255,-0.000445615500211716,1713350771.3152
-0.00590926175937057,-0.000441192038124427,1713350771.37342
-0.00580660859122872,-0.00040068372618407,1713350771.37529
-0.00528980884701014,-0.000318296777550131,1713350771.3934
-0.00633694278076291,-0.00049206183757633,1713350771.39469
-0.0058472128584981,-0.000414723413996398,1713350771.46882
-0.00563409365713596,-0.000393471564166248,1713350771.47052
-0.00555336521938443,-0.000322551961289719,1713350771.52139
-0.00604460993781686,-0.000459078204585239,1713350771.52296
-0.00603025779128075,-0.000429556414019316,1713350771.56515
-0.00582925463095307,-0.000389312539482489,1713350771.56684
-0.00585180474445224,-0.000386331521440297,1713350771.64485
-0.00603191647678614,-0.000434364541433752,1713350771.64613
-0.00590753089636564,-0.000393135007470846,1713350771.67683
-0.0058663971722126,-0.000389552966225892,1713350771.6779
-0.00583295710384846,-0.000385562219889835,1713350771.75671
-0.00598768191412091,-0.000426359038101509,1713350771.75778
-0.00597152672708035,-0.000415805232478306,1713350771.77737
-0.00590692972764373,-0.000417247676523402,1713350771.77905
-0.00596710294485092,-0.000403352227294818,1713350771.80142
-0.00599441304802895,-0.000413665635278448,1713350771.80274
-0.00595909776166081,-0.000414482987252995,1713350771.8334
-0.00596267962828279,-0.000414194510085508,1713350771.83488
-0.00598417175933719,-0.000459390721516684,1713350771.84107
-0.00592265231534839,-0.00039724592352286,1713350771.84252
-0.00598888378590345,-0.000424772355472669,1713350771.88906
-0.00597527716308832,-0.000416165828937665,1713350771.89066
-0.00598467700183392,-0.000414218549849466,1713350771.9169
-0.00599224958568811,-0.000470521510578692,1713350771.91807
-0.00597066106274724,-0.000440206378698349,1713350771.94082
-0.00599587988108397,-0.000439028401160613,1713350771.94231
-0.00598883582279086,-0.000439485156675801,1713350771.96527
-0.0059888600371778,-0.000417944829678163,1713350771.96681
-0.00598554220050573,-0.000407270825235173,1713350771.98464
-0.00601059244945645,-0.000506606360431761,1713350771.98609
-0.00599119160324335,-0.000442105578258634,1713350772.04886
-0.0059989090077579,-0.000449486018624157,1713350772.05052
-0.00600523129105568,-0.000459991744719446,1713350772.08869
-0.00601665070280433,-0.00048218117444776,1713350772.14875
-0.00599789898842573,-0.000451745843747631,1713350772.17329
-0.00599657697603107,-0.000426455197157338,1713350772.17469
-0.00600852491334081,-0.000479128008009866,1713350772.18088
-0.00601475173607469,-0.000457154965260997,1713350772.18266
-0.00600566435605288,-0.000457443442428485,1713350772.19692
-0.00605898629873991,-0.0004776855930686,1713350772.19913
-0.0060286708176136,-0.000528363045305014,1713350772.26508
-0.0060112657956779,-0.000473430409329012,1713350772.26669
-0.00601972779259086,-0.00046912714606151,1713350772.27316
-0.00599039858207107,-0.000449293700512499,1713350772.27451
-0.00600275536999106,-0.000452611304353923,1713350772.32168
-0.00598186394199729,-0.000452130479970947,1713350772.32283
-0.00598775409162045,-0.00045263534411788,1713350772.35673
-0.00598667236045003,-0.000454125867690891,1713350772.35769
-0.0060325413942337,-0.000498071953188628,1713350772.38878
-0.00595234241336584,-0.000415973510826007,1713350772.39034
-0.00600576028227806,-0.000444052857346833,1713350772.44515
-0.00602343026548624,-0.000458621449070051,1713350772.44677
-0.00601643417030573,-0.000479440554045141,1713350772.50937
-0.005984075833112,-0.000452779582701623,1713350772.51104
-0.00610668258741498,-0.000483527430333197,1713350772.53281
-0.00596354529261589,-0.000435542518971488,1713350772.53438
-0.00596808874979615,-0.00046330934856087,1713350772.54863
-0.00605177413672209,-0.000500019232276827,1713350772.54994
-0.00593755720183253,-0.000466506724478677,1713350772.60148
-0.00602821400389075,-0.000446769437985495,1713350772.6029
-0.00603073835372925,-0.000461025483673438,1713350772.64904
-0.0060048708692193,-0.000446961785200983,1713350772.66519
-0.00609593652188778,-0.000519972876645625,1713350772.66679
-0.00576701387763023,-0.000380730081815273,1713350772.6678
-0.00599061464890838,-0.00046436712727882,1713350772.71301
-0.00606100540608168,-0.000464030570583418,1713350772.71475
-0.00596544425934553,-0.000452851701993495,1713350772.75715
-0.00604513892903924,-0.00049047515494749,1713350772.7586
-0.00584464054554701,-0.000407030427595601,1713350772.84485
-0.00546847842633724,-0.00036082451697439,1713350772.84633
-0.00590962218120694,-0.00047282938612625,1713350772.86903
-0.00606054859235883,-0.000468958867713809,1713350772.87058
-0.00616846652701497,-0.000517304404638708,1713350772.89322
-0.00528093799948692,-0.000365632615284994,1713350772.8945
-0.00552389165386558,-0.000385946885216981,1713350772.91336
-0.00585144432261586,-0.000446168443886563,1713350772.91485
-0.00622558686882257,-0.000544614449609071,1713350772.95715
-0.0059145987033844,-0.000460712966741994,1713350772.9588
-0.00578509224578738,-0.000443163356976584,1713350773.0009
-0.00583550520241261,-0.000447731057647616,1713350773.00213
-0.00556896766647697,-0.000388567306799814,1713350773.03277
-0.00581694580614567,-0.000461842864751816,1713350773.03415
-0.00569551717489958,-0.000406549632316455,1713350773.07259
-0.00579547788947821,-0.000416790891904384,1713350773.07395
-0.00566664431244135,-0.000408953666919842,1713350773.14461
-0.00580583931878209,-0.000436263740994036,1713350773.14574
-0.00586423370987177,-0.000440711242845282,1713350773.15301
-0.00582569651305676,-0.00043287401786074,1713350773.15447
-0.00584718910977244,-0.00046251600724645,1713350773.20119
-0.00555913522839546,-0.000386163243092597,1713350773.22177
-0.0058883223682642,-0.0004252050712239,1713350773.24905
-0.00582237914204598,-0.000412703986512497,1713350773.25037
-0.00580677669495344,-0.000411574088502675,1713350773.3333
-0.00583432707935572,-0.000424700236180797,1713350773.33488
-0.00588413933292031,-0.000423257792135701,1713350773.35296
-0.00591604085639119,-0.000433018256444484,1713350773.35468
-0.00585637241601944,-0.000421214353991672,1713350773.38064
-0.00586788775399327,-0.0004252050712239,1713350773.38188
-0.00586512312293053,-0.000437105161836371,1713350773.40936
-0.00583759695291519,-0.000397943105781451,1713350773.41075
-0.00589825119823217,-0.000433306733611971,1713350773.45728
-0.00590409291908145,-0.00043799466220662,1713350773.45859
-0.00586702255532146,-0.000390346307540312,1713350773.46546
-0.0058748354203999,-0.000436888774856925,1713350773.46674
-0.0058867116458714,-0.000443091237684712,1713350773.54122
-0.00588565366342664,-0.00044972644536756,1713350773.54254
-0.00586952269077301,-0.000432898057624698,1713350773.55267
-0.00591190624982119,-0.000464968150481582,1713350773.5536
-0.00590991089120507,-0.000462491967482492,1713350773.6136
-0.00589216873049736,-0.000426238839281723,1713350773.61514
-0.00590692972764373,-0.000452947861049324,1713350773.64509
-0.00590709783136845,-0.0004616265068762,1713350773.64651
-0.00582060031592846,-0.000419243035139516,1713350773.67287
-0.00596938701346517,-0.000451649684691802,1713350773.67386
-0.00574403116479516,-0.000412607827456668,1713350773.72535
-0.00595224602147937,-0.000474872853374109,1713350773.72669
-0.00584795838221908,-0.00043049399391748,1713350773.7895
-0.00573088089004159,-0.000405780330765992,1713350773.79055
-0.0060442010872066,-0.000474367989227176,1713350773.80463
-0.00591647392138839,-0.00043393179657869,1713350773.80623
-0.00580896437168121,-0.000404410006012768,1713350773.83294
-0.00568099645897746,-0.000425661855842918,1713350773.83429
-0.00594375981017947,-0.000448620558017865,1713350773.88103
-0.00595195777714253,-0.000457539601484314,1713350773.88271
-0.0055365851148963,-0.000353347888449207,1713350773.937
-0.0053539490327239,-0.00039486592868343,1713350773.93861
-0.00583389448001981,-0.000421815377194434,1713350773.95689
-0.00564409419894218,-0.000357266515493393,1713350773.95791
-0.00527425482869148,-0.000310772098600864,1713350774.00524
-0.00583353405818343,-0.000407415092922747,1713350774.00701
-0.00560546107590199,-0.000297910417430103,1713350774.02894
-0.00540929054841399,-0.000332697061821818,1713350774.03058
-0.00585305504500866,-0.000433787557994947,1713350774.07714
-0.0051902811974287,-0.000288462470052764,1713350774.07852
-0.00591656984761357,-0.000429532374255359,1713350774.14557
-0.00551141472533345,-0.000396212184568867,1713350774.14695
-0.00587925920262933,-0.000531320052687079,1713350774.17746
-0.00512640550732613,-0.000298319093417376,1713350774.17886
-0.00607627118006349,-0.000470088765723631,1713350774.20597
-0.00611949618905783,-0.000432657659985125,1713350774.20763
-0.0054051554761827,-0.000341423787176609,1713350774.22954
-0.00543765816837549,-0.000410900946008042,1713350774.23148
-0.00452555995434523,-0.000178621237864718,1713350774.27272
-0.0053386352956295,-0.000286851747659966,1713350774.27422
-0.00581333972513676,-0.000437489798059687,1713350774.34902
-0.00570176774635911,-0.000414098351029679,1713350774.35026
-0.00539186084643006,-0.00034079872420989,1713350774.37311
-0.00552487745881081,-0.000362891994882375,1713350774.37468
-0.00576220545917749,-0.000417824630858377,1713350774.39657
-0.00570984510704875,-0.000409458531066775,1713350774.39756
-0.00570426788181067,-0.000419363233959302,1713350774.48095
-0.00571962958201766,-0.000399842305341735,1713350774.48265
-0.00572378886863589,-0.000400659686420113,1713350774.50539
-0.00579415541142225,-0.000401693425374106,1713350774.50663
-0.00580752221867442,-0.000413665635278448,1713350774.53346
-0.00578242354094982,-0.000413809873862192,1713350774.53523
-0.00586106022819877,-0.00042044505244121,1713350774.55284
-0.00589034147560596,-0.000468213605927303,1713350774.55411
-0.00561111094430089,-0.000421647069742903,1713350774.60059
-0.00572049524635077,-0.000491460843477398,1713350774.60177
-0.00575261330232024,-0.000482902396470308,1713350774.6286
-0.0057770386338234,-0.000442562362877652,1713350774.62994
-0.00576564343646169,-0.000423834775574505,1713350774.69778
-0.00576581154018641,-0.000455063447589055,1713350774.69897
-0.00580701697617769,-0.000455880828667432,1713350774.72858
-0.00576898502185941,-0.000430566113209352,1713350774.72948
-0.00580353150144219,-0.00043958131573163,1713350774.75288
-0.00582588883116841,-0.00043270573951304,1713350774.75452
-0.00581956654787064,-0.000392173387808725,1713350774.80884
-0.00584526546299458,-0.000471170613309369,1713350774.80988
-0.00584608316421509,-0.000440831441665068,1713350774.85268
-0.00585728604346514,-0.000431143096648157,1713350774.854
-0.0058613489381969,-0.000453212327556685,1713350774.87742
-0.00586976297199726,-0.000446937745437026,1713350774.87903
-0.00588385062292218,-0.000446168443886563,1713350774.95326
-0.00587341701611877,-0.000481339753605425,1713350774.95488
-0.00588178308680654,-0.000461530347820371,1713350774.9727
-0.00589877972379327,-0.000467035628389567,1713350774.97405
-0.00594669254496694,-0.000510548998136073,1713350775.00095
-0.00588469207286835,-0.000485114112962037,1713350775.00254
-0.00588995683938265,-0.00047504113172181,1713350775.03733
-0.00588029297068715,-0.000505308154970408,1713350775.03873
-0.00589620741084218,-0.000474969012429938,1713350775.12883
-0.00589572684839368,-0.000473286170745268,1713350775.1299
-0.00586190167814493,-0.000455375964520499,1713350775.16528
-0.00589990988373756,-0.000475930632092059,1713350775.16697
-0.00580603163689375,-0.000452467065770179,1713350775.19666
-0.00597068527713418,-0.000488960591610521,1713350775.19782
-0.00592688331380487,-0.000484224612591788,1713350775.22874
-0.00587615789845586,-0.000468814629130065,1713350775.23008
-0.00596760818734765,-0.000498120032716543,1713350775.25268
-0.00589856365695596,-0.000480185815831646,1713350775.25394
-0.00581598421558738,-0.000440326577518135,1713350775.27277
-0.00587745616212487,-0.000473021733341739,1713350775.27398
-0.00591719476506114,-0.000495619839057326,1713350775.30908
-0.00586353661492467,-0.000461842864751816,1713350775.31052
-0.00591652188450098,-0.00047520941006951,1713350775.36086
-0.00595236616209149,-0.000478839530842379,1713350775.36226
-0.00587216718122363,-0.000471651408588514,1713350775.40142
-0.00583000015467405,-0.000442971038864926,1713350775.41299
-0.00589029351249337,-0.00047362272744067,1713350775.44073
-0.00595818413421512,-0.000487229670397937,1713350775.44225
-0.00585666112601757,-0.000454390305094421,1713350775.50969
-0.00574061740189791,-0.000438643735833466,1713350775.51066
-0.00596356904134154,-0.000470136845251545,1713350775.52116
-0.00580432452261448,-0.000449077342636883,1713350775.52266
-0.00576037866994739,-0.000440831441665068,1713350775.56876
-0.00590964639559388,-0.00049275899073109,1713350775.5704
-0.00570720108225942,-0.000440759322373197,1713350775.59659
-0.00563661800697446,-0.000410540349548683,1713350775.59814
-0.00582350883632898,-0.000440759322373197,1713350775.63304
-0.0056193326599896,-0.000393471564166248,1713350775.6345
-0.00533058168366551,-0.000372796697774902,1713350775.69298
-0.00524365110322833,-0.000354021030943841,1713350775.69421
-0.00594272604212165,-0.000472637068014592,1713350775.71664
-0.00564385391771793,-0.000427825492806733,1713350775.718
-0.00579860294237733,-0.000453861401183531,1713350775.76464
-0.00560519704595208,-0.000352963252225891,1713350775.76625
-0.00569732021540403,-0.00039248590474017,1713350775.80089
-0.00654318649321795,-0.000680491619277746,1713350775.80239
-0.00561048556119204,-0.000352362229023129,1713350775.86107
-0.00486037274822593,-0.000262498680967838,1713350775.86253
-0.00531457085162401,-0.000378590455511585,1713350775.8888
-0.00573244364932179,-0.000407703570090234,1713350775.89023
-0.00506070256233215,-0.000306829460896552,1713350775.98093
-0.0057623740285635,-0.000672389927785844,1713350775.98295
-0.00580497365444899,-0.000329139060340822,1713350776.00089
-0.00535385310649872,-0.00032906694104895,1713350776.00231
-0.00508866179734468,-0.000348587869666517,1713350776.03689
-0.00567157287150621,-0.000397678668377921,1713350776.03805
-0.0058579109609127,-0.000425181031459942,1713350776.08088
-0.00563959870487452,-0.000394000468077138,1713350776.08244
-0.00465232599526644,-0.00018583339988254,1713350776.08892
-0.00560522079467773,-0.000386595958843827,1713350776.08993
-0.00560519704595208,-0.000416286027757451,1713350776.12165
-0.00547845521941781,-0.00036346897832118,1713350776.12286
-0.00554124917834997,-0.000377869262592867,1713350776.16116
-0.00574794970452786,-0.00041373775457032,1713350776.16253
-0.00570563832297921,-0.00041611774940975,1713350776.2132
-0.00566589925438166,-0.000411766406614333,1713350776.21428
-0.00562952598556876,-0.000405491824494675,1713350776.23298
-0.00563101656734943,-0.000399000884499401,1713350776.23416
-0.00564462319016457,-0.000375609437469393,1713350776.31326
-0.00570421991869807,-0.00036770009319298,1713350776.31476
-0.0056199817918241,-0.000388615386327729,1713350776.33665
-0.00588839454576373,-0.000378878961782902,1713350776.3383
-0.00547975348308682,-0.000466410565422848,1713350776.3933
-0.00578011572360992,-0.00046225156984292,1713350776.39472
-0.00560425920411944,-0.000431431573815644,1713350776.43739
-0.00568868964910507,-0.000380008859792724,1713350776.43875
-0.00570107065141201,-0.00041664665332064,1713350776.49264
-0.00571232149377465,-0.000447562779299915,1713350776.4937
-0.00573491957038641,-0.000448404200142249,1713350776.5207
-0.00572410132735968,-0.000416189868701622,1713350776.52202
-0.00574963260442019,-0.000402318488340825,1713350776.54079
-0.00572270713746548,-0.000463886302895844,1713350776.56476
-0.00573465507477522,-0.00043535020085983,1713350776.59666
-0.00575965736061335,-0.000405972648877651,1713350776.59841
-0.00576160475611687,-0.00041188663453795,1713350776.62673
-0.00577136501669884,-0.000401332828914747,1713350776.62702
-0.00579201569780707,-0.000411117332987487,1713350776.63746
-0.00580485351383686,-0.000480450253235176,1713350776.6392
-0.00579396309331059,-0.000467828969703987,1713350776.685
-0.00579170323908329,-0.000432272994657978,1713350776.68605
-0.00578641425818205,-0.000409578729886562,1713350776.71344
-0.00579427555203438,-0.000446553080109879,1713350776.71489
-0.00580064626410604,-0.00045078422408551,1713350776.74917
-0.00580891640856862,-0.000427657214459032,1713350776.75086
-0.005800093524158,-0.000451433326816186,1713350776.79275
-0.00579867511987686,-0.000434436660725623,1713350776.79428
-0.00580295454710722,-0.000433811597758904,1713350776.84463
-0.00580802699550986,-0.00043164796079509,1713350776.8463
-0.00581430131569505,-0.00043085461948067,1713350776.94092
-0.00580817135050893,-0.000442634482169524,1713350776.94265
-0.0058247591368854,-0.00045739536290057,1713350776.96926
-0.00581120001152158,-0.000461073563201353,1713350776.97102
-0.00578970788046718,-0.000438403338193893,1713350776.9891
-0.00580247351899743,-0.000446985824964941,1713350776.99075
-0.00579309789463878,-0.000447130063548684,1713350777.01664
-0.00575778214260936,-0.000431167136412114,1713350777.01824
-0.00585569906979799,-0.00045739536290057,1713350777.0291
-0.0057715573348105,-0.000427344697527587,1713350777.03078
-0.00577535573393106,-0.000440927600720897,1713350777.09453
-0.00572614464908838,-0.000420997996116057,1713350777.09621
-0.00580946914851666,-0.000457755988463759,1713350777.14617
-0.00579694425687194,-0.000448860984761268,1713350777.14718
-0.00577831268310547,-0.000433402921771631,1713350777.15271
-0.00584199605509639,-0.000457010726677254,1713350777.15429
-0.00571301858872175,-0.000436335860285908,1713350777.23311
-0.00586726283654571,-0.000457539601484314,1713350777.2346
-0.005797088611871,-0.00044628864270635,1713350777.25666
-0.00576107576489449,-0.00043878800352104,1713350777.25819
-0.00574715621769428,-0.00045607314677909,1713350777.28095
-0.0058309375308454,-0.000457539601484314,1713350777.2824
-0.00564145017415285,-0.000389504886697978,1713350777.31327
-0.00552862789481878,-0.000381042598746717,1713350777.31476
-0.00588752888143063,-0.00046992048737593,1713350777.34552
-0.00590125611051917,-0.000464751763502136,1713350777.347
-0.00569594977423549,-0.000430662272265181,1713350777.42938
-0.00542876310646534,-0.000368781940778717,1713350777.43075
-0.00580778671428561,-0.000448740785941482,1713350777.44937
-0.00591618521139026,-0.000522857764735818,1713350777.45074
-0.00492025772109628,-0.000317912141326815,1713350777.47409
-0.00518482411280274,-0.000389913562685251,1713350777.47591
-0.00576610025018454,-0.000408881547627971,1713350777.55696
-0.00468829041346908,-0.000193021522136405,1713350777.55843
-0.0061164190992713,-0.000511342368554324,1713350777.57697
-0.00575056998059154,-0.000405251426855102,1713350777.57846
-0.00512477057054639,-0.000344525033142418,1713350777.59307
-0.00609862897545099,-0.000776725879404694,1713350777.5942
-0.00599352363497019,-0.000426046492066234,1713350777.66116
-0.00499668251723051,-0.000315916782710701,1713350777.66274
-0.00467701535671949,-0.000268749223323539,1713350777.69289
-0.00632763933390379,-0.000552716141100973,1713350777.69428
-0.00572407711297274,-0.000406092847697437,1713350777.70492
-0.00497603183612227,-0.000233217302593403,1713350777.70646
-0.00484082754701376,-0.000293318676995113,1713350777.7647
-0.0058368993923068,-0.0004896818427369,1713350777.76632
-0.00550304865464568,-0.000327119661960751,1713350777.79315
-0.00526319583877921,-0.000332288385834545,1713350777.7948
-0.00521646114066243,-0.00033762538805604,1713350777.82536
-0.00631876802071929,-0.000507519929669797,1713350777.82689
-0.00556961679831147,-0.000367868400644511,1713350777.87659
-0.00557016953825951,-0.000381427264073864,1713350777.87811
-0.0055928397923708,-0.000373590039089322,1713350777.92495
-0.00558839226141572,-0.000334812648361549,1713350777.92645
-0.00565113825723529,-0.000354189309291542,1713350777.95286
-0.00562305888161063,-0.000348083034623414,1713350777.95443
-0.00569097325205803,-0.000419218995375559,1713350777.99711
-0.00571261020377278,-0.000395995826693252,1713350777.99859
-0.00569272832944989,-0.000389144261134788,1713350778.04614
-0.00572559190914035,-0.000391380046494305,1713350778.0474
-0.00573080871254206,-0.000366810592822731,1713350778.09723
-0.00579499686136842,-0.000376571057131514,1713350778.09882
-0.00577600486576557,-0.000347049266565591,1713350778.16945
-0.00578790483996272,-0.00036452675703913,1713350778.17094
-0.00574004044756293,-0.000436600297689438,1713350778.17704
-0.00574669940397143,-0.000443644181359559,1713350778.17855
-0.00576578779146075,-0.000407895888201892,1713350778.23721
-0.00585336750373244,-0.000480257935123518,1713350778.23876
-0.00584177998825908,-0.000468766549602151,1713350778.24517
-0.00584314996376634,-0.000392005080357194,1713350778.24687
-0.00586262298747897,-0.000424531957833096,1713350778.27296
-0.00587796093896031,-0.000402967591071501,1713350778.2745
-0.00589305814355612,-0.000371642760001123,1713350778.32485
-0.00590135250240564,-0.000335461721988395,1713350778.32631
-0.00593318184837699,-0.000382509082555771,1713350778.35278
-0.00592734012752771,-0.000328345748130232,1713350778.35433
-0.00596905034035444,-0.000363661296432838,1713350778.40101
-0.00598587887361646,-0.000349333131453022,1713350778.40229
-0.00600797217339277,-0.000338899524649605,1713350778.42176
-0.00601148186251521,-0.000326614826917648,1713350778.42329
-0.00602338230237365,-0.000320652761729434,1713350778.46907
-0.00603230111300945,-0.000342601764714345,1713350778.47071
-0.00603643618524075,-0.000318104459438473,1713350778.51746
-0.00604155659675598,-0.000331374845700338,1713350778.51888
-0.00605511572211981,-0.000315772544126958,1713350778.5413
-0.00604985048994422,-0.000312935735564679,1713350778.54276
-0.0060659097507596,-0.000309570081299171,1713350778.58539
-0.0060588656924665,-0.000305194698739797,1713350778.58705
-0.00607006903737783,-0.000285024667391554,1713350778.64899
-0.00609069550409913,-0.000301564577966928,1713350778.65037
-0.00609314767643809,-0.000291756034130231,1713350778.6772
-0.00608925335109234,-0.000277403829386458,1713350778.67873
-0.00609581638127565,-0.000286178634269163,1713350778.76494
-0.00613853614777327,-0.000299473031191155,1713350778.78883
-0.00609925389289856,-0.000263796886429191,1713350778.80901
-0.00610442273318768,-0.000265022943494841,1713350778.81022
-0.00611714040860534,-0.000277620187262073,1713350778.86539
-0.00610887026414275,-0.000254372978815809,1713350778.86761
-0.00614521931856871,-0.000260815839283168,1713350778.87304
-0.00612605921924114,-0.000255358638241887,1713350778.87455
-0.00613819947466254,-0.00023910723393783,1713350778.89704
-0.00606453930959106,-0.000216172556974925,1713350778.89856
-0.00617594318464398,-0.000236438732827082,1713350778.95293
-0.00615281658247113,-0.000229563142056577,1713350778.95449
-0.0060951909981668,-0.000237400367041118,1713350778.97747
-0.00609848462045193,-0.000230284364079125,1713350778.97887
-0.00608139205724001,-0.000175808483618312,1713350779.00527
-0.00616067741066217,-0.000197733461391181,1713350779.00681
-0.00615122960880399,-0.000194271633517928,1713350779.02473
-0.00616793800145388,-0.000183597629074939,1713350779.02617
-0.00615603756159544,-0.000160807190695778,1713350779.08538
-0.00607074191793799,-0.000158066570293158,1713350779.0867
-0.00616983696818352,-0.000165783581905998,1713350779.10503
-0.00559437880292535,-6.22169245616533E-05,1713350779.10634
-0.00581704219803214,-9.878259152174E-05,1713350779.17315
-0.00585226155817509,-9.73642017925158E-05,1713350779.17461
-0.0058773597702384,-0.0001113077159971,1713350779.19344
-0.00638430286198854,-0.000185496828635223,1713350779.19468
-0.00603792676702142,-0.000144772144267336,1713350779.23255
-0.00589031772688031,-5.18554516020231E-05,1713350779.23377
-0.00633711135014892,-0.000155157656990923,1713350779.27318
-0.00598979741334915,-7.1352333179675E-05,1713350779.30067
-0.00542679196223617,1.97372864931822E-05,1713350779.32141
-0.00678676553070545,-0.000237111875321716,1713350779.3235
-0.00611601024866104,-3.0699771741638E-05,1713350779.35732
-0.00495492434129119,5.10140307596885E-05,1713350779.35827
-0.00606252020224929,-9.60179313551635E-05,1713350779.42118
-0.005484898108989,4.04602324124426E-05,1713350779.4225
-0.00647361343726516,-0.000271393684670329,1713350779.42899
-0.00486390665173531,0.000235909843468107,1713350779.43025
-0.00588286528363824,-1.85833396244561E-05,1713350779.48081
-0.00593943241983652,-2.82235978374956E-05,1713350779.48187
-0.00493126828223467,0.00011363964586053,1713350779.50928
-0.00667668366804719,-0.000151431377162226,1713350779.51072
-0.0061577926389873,-5.16631262144074E-05,1713350779.54512
-0.00600987114012241,-2.45453938987339E-05,1713350779.54662
-0.00552266556769609,5.66154776606709E-05,1713350779.58861
-0.00606559729203582,-6.13514639553614E-05,1713350779.59012
-0.00611896719783545,-2.84880425169831E-05,1713350779.63682
-0.0060961046256125,-4.53885440947488E-05,1713350779.63836
-0.00606679916381836,-5.83704386372119E-05,1713350779.68553
-0.00598359480500221,-2.38241773331538E-05,1713350779.68679
-0.00608232943341136,9.08732545212843E-06,1713350779.71346
-0.00610254751518369,-1.23087584142922E-05,1713350779.71508
-0.00613868050277233,-2.69494485110044E-05,1713350779.76887
-0.00623777555301786,-3.68781911674887E-05,1713350779.77012
-0.0059802052564919,-1.91603121493245E-05,1713350779.7967
-0.00605475483462215,-5.66395174246281E-05,1713350779.79778
-0.00607927655801177,-4.90667480335105E-05,1713350779.84867
-0.00616962090134621,-3.39212056132965E-05,1713350779.87663
-0.0061719287186861,-2.40405437779145E-08,1713350779.93297
-0.00611451966688037,-4.51962205261225E-06,1713350779.93478
-0.00615296047180891,-1.12269335659221E-05,1713350779.95749
-0.00616611074656248,-2.1179717805353E-05,1713350779.95837
-0.00616901973262429,1.22606763852673E-06,1713350780.00474
-0.00618195347487927,-1.36309881781926E-05,1713350780.00562
-0.00617281813174486,1.27174471344915E-05,1713350780.0568
-0.00618091970682144,1.37031092890538E-05,1713350780.05821
-0.00619491143152118,2.59637863564421E-06,1713350780.08532
-0.00619486346840858,2.06267850444419E-05,1713350780.0869
-0.00619714707136154,1.71889878401998E-05,1713350780.0971
-0.00619661808013916,1.06018796941498E-05,1713350780.09868
-0.00619666650891304,-8.7747985162423E-06,1713350780.14912
-0.00619806069880724,2.32712463912321E-05,1713350780.15119
-0.00621541775763035,-1.97372864931822E-05,1713350780.16496
-0.0062133502215147,7.52468986320309E-06,1713350780.16655
-0.00620246026664972,3.4954948205268E-05,1713350780.19688
-0.00621577864512801,1.69245413417229E-05,1713350780.19783
-0.00623116455972195,1.31501765281428E-05,1713350780.24936
-0.00620803749188781,7.66893299442017E-06,1713350780.25091
-0.00621368689462543,1.04576365629327E-05,1713350780.26875
-0.00619995966553688,1.71649480762426E-05,1713350780.27026
-0.00619995966553688,2.81274351436878E-05,1713350780.30918
-0.00620140228420496,2.33674072660506E-05,1713350780.31072
-0.00622647674754262,1.92805146070896E-05,1713350780.35705
-0.00625972449779511,-2.99064358841861E-05,1713350780.35868
-0.00620935950428247,-1.95690026885131E-05,1713350780.38877
-0.00620171474292874,-2.42809483097517E-06,1713350780.3902
-0.00619498360902071,1.43281631608261E-05,1713350780.44452
-0.00619156984612346,2.81995562545489E-05,1713350780.44576
-0.00619647419080138,1.53859480178653E-06,1713350780.51675
-0.00619630562141538,1.32944205688545E-05,1713350780.51816
-0.00619750749319792,9.25560925679747E-06,1713350780.54113
-0.00619510374963284,7.40448740543798E-06,1713350780.54292
-0.00619452679529786,1.28616902657086E-05,1713350780.59286
-0.00619774824008346,1.4760893463972E-05,1713350780.5944
-0.00620226794853807,5.04851414007135E-06,1713350780.61713
-0.00619575288146734,3.87052750738803E-06,1713350780.61856
-0.00618620868772268,1.437624450773E-05,1713350780.66936
-0.00617760233581066,9.5681361926836E-06,1713350780.67066
-0.00616846652701497,2.47617595050542E-06,1713350780.70889
-0.00614930642768741,4.59174361822079E-06,1713350780.71044
-0.00615918729454279,1.40637175718439E-05,1713350780.71194
-0.00613163644447923,3.3656760933809E-07,1713350780.71339
-0.00613666092976928,-9.06328477867646E-06,1713350780.7609
-0.00609124870970845,5.5774057727831E-06,1713350780.76193
-0.00602085795253515,4.05323553422932E-05,1713350780.81307
-0.00604679761454463,4.49558137916029E-06,1713350780.81448
-0.0061964257620275,-2.69734882749617E-05,1713350780.85812
-0.00595181342214346,2.69734882749617E-05,1713350780.85886
-0.00560298515483737,0.000110322049295064,1713350780.86467
-0.00632040295749903,-7.19293020665646E-05,1713350780.86628
-0.00619911821559072,-4.06285153076169E-06,1713350780.9335
-0.00580264162272215,0.000102869482361712,1713350780.93475
-0.00591565622016788,2.23577058022784E-06,1713350781.0173
-0.0056610913015902,6.59191719023511E-05,1713350781.01863
-0.0059166899882257,-1.85112185135949E-06,1713350781.04548
-0.00624587712809444,-3.63493018085137E-05,1713350781.04748
-0.0056702746078372,5.43316273251548E-05,1713350781.07709
-0.00556793389841914,5.81540734856389E-05,1713350781.08017
-0.00655061518773437,-0.000172010084497742,1713350781.10523
-0.00497889239341021,0.000196964174392633,1713350781.1071
-0.00620298879221082,-8.27235053293407E-05,1713350781.12533
-0.00598941277712584,-5.65433583687991E-05,1713350781.12677
-0.00491275684908032,0.000148474398883991,1713350781.17337
-0.00601852592080832,-3.44741383742075E-05,1713350781.17475
-0.00642827292904258,-0.000119481497677043,1713350781.20059
-0.00542131066322327,5.23603011970408E-05,1713350781.20194
-0.00565419159829617,3.28393798554316E-05,1713350781.22912
-0.00514859473332763,0.000130684391479008,1713350781.23056
-0.00612449645996094,-4.1830546251731E-05,1713350781.27332
-0.00604689354076982,-3.03872457152465E-05,1713350781.27459
-0.0057063833810389,3.01468407997163E-05,1713350781.32904
-0.00582997594028711,-2.8367840059218E-05,1713350781.33042
-0.00550718372687697,8.89980874489993E-05,1713350781.34906
-0.0058687049895525,-2.18047716771252E-05,1713350781.3504
-0.00581747479736805,-1.54099889186909E-05,1713350781.40092
-0.00584266940131784,-3.41135310009122E-05,1713350781.40242
-0.0058243265375495,-1.81746509042569E-05,1713350781.42918
-0.00610117707401514,-4.52202621090692E-05,1713350781.43029
-0.00588572584092617,-1.45204876389471E-05,1713350781.47692
-0.00588163919746876,-3.55078809661791E-05,1713350781.47839
-0.00588349020108581,-5.51970879314467E-05,1713350781.55011
-0.00586281530559063,-1.80544484464917E-05,1713350781.55072
-0.00592806143686175,-3.22624073305633E-05,1713350781.578
-0.00582648999989033,-6.40199650661088E-05,1713350781.57855
-0.00590178510174155,-0.0000931571048568003,1713350781.58863
-0.00591796450316906,-8.52718076203018E-05,1713350781.58966
-0.00592120969668031,-0.000131069042254239,1713350781.66651
-0.00599864451214671,-9.91672422969714E-05,1713350781.66807
-0.00592984026297927,-6.38516794424504E-05,1713350781.69282
-0.00598068628460169,-6.55104813631624E-05,1713350781.69457
-0.00600126478821039,-8.26754258014262E-05,1713350781.72078
-0.00601660273969173,-8.42140216263942E-05,1713350781.72237
-0.00602374272421002,-7.9069344792515E-05,1713350781.7448
-0.00603912863880396,-2.57714618783211E-05,1713350781.74603
-0.00604545138776302,-0.000112581859866623,1713350781.78085
-0.00607708841562271,-7.98626861069351E-05,1713350781.78247
-0.00611680373549461,-0.000106090912595391,1713350781.84101
-0.00608644029125571,-0.00013097288319841,1713350781.84209
-0.00608139205724001,-9.77488452917896E-05,1713350781.86479
-0.00608199276030064,-7.9285709944088E-05,1713350781.86635
-0.00610045623034239,-0.000128472660435364,1713350781.94511
-0.00610829330980778,-0.000109288310341071,1713350781.94652
-0.00611341372132301,-0.00011027396976715,1713350781.99661
-0.00613081920892,-0.000130564192659222,1713350781.99757
-0.00612113112583756,-0.000109721040644217,1713350782.03284
-0.00613175705075264,-0.000130107422592118,1713350782.03389
-0.00613880064338446,-0.000128544779727235,1713350782.08877
-0.00615421077236533,-0.000105946674011648,1713350782.11288
-0.00614836905151606,-0.000146190548548475,1713350782.11449
-0.00615255208685994,-0.000155542307766154,1713350782.11573
-0.00615195091813803,-0.000146527105243877,1713350782.18122
-0.00615272019058466,-0.000151070766150951,1713350782.18285
-0.00615598959848285,-0.000159557079314254,1713350782.20891
-0.00616127857938409,-0.000165086414199322,1713350782.21053
-0.0061646681278944,-0.00015813868958503,1713350782.23649
-0.00616337032988668,-0.000150662075611763,1713350782.2382
-0.00618253042921424,-0.000174197775777429,1713350782.33762
-0.00616998132318258,-0.000177924055606127,1713350782.33953
-0.006174236536026,-0.000173380394699052,1713350782.36513
-0.00618039071559906,-0.000172755346284248,1713350782.36671
-0.00618577608838677,-0.000180015587829985,1713350782.4216
-0.00618200143799186,-0.000179126087459736,1713350782.423
-0.00617731362581253,-0.00016374014376197,1713350782.44905
-0.00618796376511455,-0.000170134924701415,1713350782.45064
-0.00618760287761688,-0.00018583339988254,1713350782.46934
-0.00619967142120004,-0.000193430212675594,1713350782.47079
-0.00618664128705859,-0.000180304064997472,1713350782.52901
-0.00617952551692724,-0.000180568516952917,1713350782.53072
-0.00617930898442864,-0.000206364027690142,1713350782.58175
-0.00614481093361974,-0.00017467858560849,1713350782.58296
-0.00606352975592017,-0.000166769241332077,1713350782.58926
-0.00619995966553688,-0.00021088364883326,1713350782.5905
-0.00607593450695276,-0.000191362720215693,1713350782.59662
-0.00619253143668175,-0.000215138818020932,1713350782.5983
-0.00620027258992195,-0.000257329957094043,1713350782.65664
-0.00618822826072574,-0.000203358955332078,1713350782.67673
-0.00612069806084037,-0.000196291031897999,1713350782.68467
-0.00622779875993729,-0.000236534906434827,1713350782.68629
-0.00587214296683669,-0.000145781858009286,1713350782.69345
-0.00567508256062865,-0.000103206053609028,1713350782.69482
-0.00617363536730409,-0.000212013546843082,1713350782.72141
-0.00574492057785392,-0.000140012125484645,1713350782.72277
-0.00602929620072246,-0.000175303634023294,1713350782.74077
-0.00614642165601254,-0.000208455545362085,1713350782.74244
-0.00592123391106725,-0.000136958973598666,1713350782.79291
-0.00611305329948664,-0.000215739826671779,1713350782.79383
-0.00570477265864611,-0.000109865279227961,1713350782.8409
-0.00534339528530836,-5.83944784011692E-05,1713350782.84196
-0.00622919294983149,-0.000251704477705061,1713350782.90933
-0.00618007825687528,-0.000279687665170059,1713350782.91102
-0.00606191903352737,-0.000230092031415552,1713350782.96595
-0.00535039091482759,-1.05778383385768E-06,1713350782.96704
-0.00576658081263304,-0.000183477430255152,1713350782.97323
-0.00574100203812122,-0.000149219646118581,1713350782.97463
-0.00525538297370076,-5.60385051358025E-05,1713350783.03732
-0.00567779922857881,-0.000106956373201683,1713350783.03876
-0.00610014330595732,-0.000202036724658683,1713350783.05684
-0.00595794385299087,-0.000207686243811622,1713350783.05808
-0.00589452497661114,-0.000145661644637585,1713350783.08894
-0.0064594536088407,-0.000276370090432465,1713350783.09058
-0.00584086636081338,-0.000167947233421728,1713350783.11706
-0.00527699524536729,-9.93355206446722E-05,1713350783.11863
-0.00640995381399989,-0.00026891750167124,1713350783.19297
-0.00667598657310009,-0.000320268125506118,1713350783.22501
-0.00598414801061153,-0.000180376198841259,1713350783.27719
-0.00599441304802895,-0.000190929989912547,1713350783.27841
-0.00600982317700982,-0.000197637302335352,1713350783.32522
-0.00602994533255696,-0.000168067432241514,1713350783.32664
-0.0060489852912724,-0.000182636009412818,1713350783.35701
-0.00606343382969499,-0.000187179670319892,1713350783.35843
-0.00607814639806747,-0.000170567655004561,1713350783.40504
-0.00629636226221919,-0.000237304193433374,1713350783.40644
-0.00610350910574198,-0.000254565296927467,1713350783.42931
-0.00598765769973397,-0.000208335346542299,1713350783.43076
-0.00604220572859049,-0.000193093641428277,1713350783.45685
-0.00608720956370235,-0.000176866276888177,1713350783.45813
-0.00611848663538694,-0.000197901754290797,1713350783.46904
-0.00611853459849954,-0.000199223984964192,1713350783.47049
-0.00614308007061482,-0.000163018921739422,1713350783.48511
-0.00615642266348004,-0.000126453262055293,1713350783.48684
-0.0061735394410789,-0.000167586622410454,1713350783.5052
-0.00618969462811947,-0.000146070335176773,1713350783.50671
-0.0061934688128531,-0.000143618206493557,1713350783.55698
-0.00621135486289859,-0.000106523642898537,1713350783.55856
-0.00626818696036935,-0.000145541445817798,1713350783.58477
-0.00622202921658754,-0.000130299740703776,1713350783.58636
-0.0062311883084476,-0.000152513210196048,1713350783.6409
-0.00622933730483055,-0.000120899887406267,1713350783.64228
-0.00623315991833806,-0.000118736243166495,1713350783.69326
-0.00623933831229806,-0.00012510699161794,1713350783.69488
-0.00624657468870282,-0.00013075651077088,1713350783.72912
-0.00625198381021619,-0.000108807500510011,1713350783.73082
-0.0062515027821064,-0.000109192144009285,1713350783.76084
-0.00626330683007836,-0.000130275700939819,1713350783.76244
-0.00625465204939246,-8.76037374837324E-05,1713350783.78938
-0.00625996524468064,-7.04147532815114E-05,1713350783.78978
-0.00626679277047515,-0.000116356226499192,1713350783.83706
-0.00626950897276402,-0.000106595769466367,1713350783.83879
-0.00627862056717277,-9.878259152174E-05,1713350783.88073
-0.00628381315618753,-0.000104239792563021,1713350783.88201
-0.00629193894565105,-0.000103999387647491,1713350783.9217
-0.00628314027562737,-8.33966405480169E-05,1713350783.92283
-0.00629001576453447,-7.92135906522162E-05,1713350783.94459
-0.00629345374181867,-7.66412485972978E-05,1713350783.94601
-0.00629323720932007,-7.5030533480458E-05,1713350784.00578
-0.00630518514662981,-8.41659420984797E-05,1713350784.00658
-0.00630477676168084,-6.22890438535251E-05,1713350784.02177
-0.00630556978285313,-5.92599390074611E-05,1713350784.02326
-0.00632917787879705,-6.67605854687281E-05,1713350784.10888
-0.00635350681841373,-0.000104263832326978,1713350784.11043
-0.00628664996474981,-7.7098018664401E-05,1713350784.12516
-0.00633362540975213,-6.36353142908774E-05,1713350784.12629
-0.00630874326452613,-4.75762353744358E-05,1713350784.14892
-0.00629225140437484,-5.09659512317739E-05,1713350784.15027
-0.00627499027177691,-4.29604515375104E-05,1713350784.22062
-0.0063931979238987,-7.07753570168279E-05,1713350784.22224
-0.00630713254213333,-4.65665325464215E-05,1713350784.2235
-0.00616365857422352,-7.42852762414259E-06,1713350784.22446
-0.00628677010536194,-5.24324241268914E-05,1713350784.309
-0.00635088654235005,-5.59183026780374E-05,1713350784.31049
-0.00633557233959436,-4.65184493805282E-05,1713350784.32526
-0.00628261128440499,-2.72379347734386E-05,1713350784.32683
-0.00626595132052898,-1.34867441374809E-05,1713350784.34933
-0.00617481349036098,4.18305444327416E-06,1713350784.35096
-0.00625522900372744,-3.17575577355456E-05,1713350784.40106
-0.00618452578783035,-3.85369894502219E-05,1713350784.40218
-0.00605843309313059,5.44277900189627E-05,1713350784.42514
-0.00603869603946805,1.38713930937229E-05,1713350784.42663
-0.00620777299627662,-1.74053529917728E-05,1713350784.46935
-0.00615389831364155,5.42835441592615E-05,1713350784.47048
-0.00639817398041487,-9.72199559328146E-05,1713350784.52062
-0.00635463651269674,-4.62540047010407E-05,1713350784.52188
-0.00579454004764557,9.44552957662381E-05,1713350784.54981
-0.00648666732013226,-4.86580574943218E-05,1713350784.55119
-0.00622871238738298,-3.16133155138232E-05,1713350784.60054
-0.00508197862654924,0.0002550701610744,1713350784.60172
-0.00546314148232341,0.00011260589963058,1713350784.62459
-0.00657299673184752,-0.0001235203089891,1713350784.62554
-0.00640165992081165,-5.82983157073613E-05,1713350784.68134
-0.00608718581497669,-8.7747985162423E-06,1713350784.68322
-0.00672212056815624,-9.397447865922E-05,1713350784.72938
-0.0059114252217114,9.18348723644158E-06,1713350784.73077
-0.00607696827501059,7.90933881944511E-06,1713350784.76475
-0.00615815352648497,-7.31313339201733E-05,1713350784.76656
-0.00585144432261586,7.13042536517605E-05,1713350784.79309
-0.0065129678696394,-3.80321398552041E-05,1713350784.79479
-0.00625962857156992,-3.38971653945919E-06,1713350784.86087
-0.00618558377027512,-3.94264907299657E-06,1713350784.8621
-0.00617221696302295,-3.86812353099231E-05,1713350784.881
-0.00568712688982487,7.63046846259385E-05,1713350784.88267
-0.00624121353030205,3.60608146365848E-06,1713350784.91671
-0.00622955383732915,-7.16408158041304E-06,1713350784.91839
-0.00624914700165391,-1.44724072015379E-05,1713350784.95283
-0.0062693408690393,-3.87052750738803E-06,1713350784.95434
-0.00628741923719645,-8.58247403812129E-06,1713350784.99772
-0.00632809614762664,-8.39014956000028E-06,1713350784.99895
-0.00629564141854644,-1.28857309391606E-05,1713350785.02168
-0.00632271077483892,-8.67863582243444E-06,1713350785.02293
-0.00637216214090586,9.27964993024943E-06,1713350785.06463
-0.00640930468216538,-2.85120840999298E-05,1713350785.06614
-0.00641632452607155,-6.07264119025785E-05,1713350785.12455
-0.00640331860631704,-0.000119890188216232,1713350785.12568
-0.00635081436485052,-4.95716012665071E-05,1713350785.14528
-0.00627979869022965,-4.59895600215532E-05,1713350785.14667
-0.00630768574774265,-7.1785063482821E-05,1713350785.20161
-0.00636680144816637,-0.000108759413706139,1713350785.20311
-0.00631934497505426,-4.38980314356741E-05,1713350785.24487
-0.00635478086769581,-6.04860069870483E-05,1713350785.24626
-0.00635670404881239,-4.04842758143786E-05,1713350785.28133
-0.00636802706867456,-6.59191719023511E-05,1713350785.28291
-0.00637632142752409,-5.4019099479774E-05,1713350785.30933
-0.0063682678155601,-4.05563951062504E-05,1713350785.31074
-0.00639394298195839,-3.75032468582503E-05,1713350785.34504
-0.00635701650753617,-1.81746509042569E-05,1713350785.34639
-0.00641807960346341,-6.47652195766568E-05,1713350785.39686
-0.00638108141720295,-5.08938283019234E-05,1713350785.39864
-0.00640257354825735,-3.94745729863644E-05,1713350785.43817
-0.00640129949897528,-5.46201117685996E-05,1713350785.43903
-0.0063977655954659,-5.12063561473042E-05,1713350785.53741
-0.00638456735759974,-2.01700149773387E-05,1713350785.53843
-0.00639411108568311,-0.000107365063740872,1713350785.56114
-0.00637184968218207,-4.59655166196171E-05,1713350785.56275
-0.00639168312773109,-5.46441551705357E-05,1713350785.58074
-0.00636629620566964,-5.49566793779377E-05,1713350785.58187
-0.00639528920874,-0.000118303512863349,1713350785.60534
-0.00642185425385833,-8.83249522303231E-05,1713350785.60667
-0.00638064835220575,-0.000122318277135491,1713350785.62852
-0.00636050244793296,-8.36370454635471E-05,1713350785.63004
-0.00638086488470435,-3.31519077008124E-05,1713350785.67307
-0.00637773983180523,-0.000108807500510011,1713350785.67457
-0.00636656070128083,-9.70997498370707E-05,1713350785.71674
-0.00638093706220388,-8.18820917629637E-05,1713350785.71802
-0.00636067101731896,-6.42363302176818E-05,1713350785.74094
-0.00636576768010855,-8.35168466437608E-05,1713350785.74236
-0.00636095926165581,-8.81807136465795E-05,1713350785.80091
-0.00639026472344995,-8.91182935447432E-05,1713350785.8025
-0.0064332252368331,-9.0632849605754E-05,1713350785.83697
-0.00636608013883233,-8.35649261716753E-05,1713350785.83852
-0.00637867720797658,-0.00010361473687226,1713350785.88536
-0.00625573378056288,-9.15223499760032E-05,1713350785.88681
-0.00617808289825916,-7.51266998122446E-05,1713350785.91324
-0.00646822806447744,-0.000136237751576118,1713350785.92508
-0.0062471516430378,-8.06800599093549E-05,1713350785.96136
-0.00635860348120332,-0.000117750576464459,1713350785.96268
-0.00636285869404674,-0.000118880481750239,1713350786.02091
-0.00624034786596894,-8.05839008535259E-05,1713350786.02194
-0.00617522234097123,-0.000100753917649854,1713350786.04093
-0.00643894681707025,-0.00012431365030352,1713350786.04229
-0.00597979640588164,-4.8778259952087E-05,1713350786.10145
-0.00634302524849772,-0.000134651083499193,1713350786.10275
-0.00638394197449088,-0.000124794460134581,1713350786.10425
-0.00574165116995573,-2.0795068849111E-05,1713350786.10587
-0.00604670122265816,-6.90203960402869E-05,1713350786.1532
-0.00628172187134624,-0.000132487431983463,1713350786.15476
-0.00615711975842714,-0.000100609671790153,1713350786.18107
-0.00600741896778345,-8.43101806822233E-05,1713350786.18278
-0.00606283266097307,-9.07290086615831E-05,1713350786.23273
-0.00617579929530621,-0.000122342316899449,1713350786.23408
-0.00625508464872837,-0.000122414450743236,1713350786.28114
-0.00595061155036092,-0.00010142705286853,1713350786.28255
-0.00597715191543102,-3.35125150741078E-05,1713350786.30502
-0.006011962890625,-0.000122967379866168,1713350786.30648
-0.00643947580829263,-0.000182275398401544,1713350786.3571
-0.00520886434242129,7.93097497080453E-05,1713350786.35872
-0.00582031160593033,-8.56804981594905E-05,1713350786.38075
-0.00625857058912516,-0.000161961143021472,1713350786.38238
-0.00587899470701814,-5.99330742261372E-05,1713350786.43256
-0.00577078806236386,2.43771100940648E-05,1713350786.43349
-0.00627301912754774,-0.00013044397928752,1713350786.48075
-0.00581735465675592,-3.00506781059084E-05,1713350786.51334
-0.00492872018367052,5.14227212988772E-05,1713350786.55672
-0.00575251737609506,-9.3133065092843E-05,1713350786.55779
-0.00612406386062503,-7.95501546235755E-05,1713350786.58497
-0.00601078476756811,-8.48390773171559E-05,1713350786.58641
-0.00641031470149756,-0.000167153892107308,1713350786.59301
-0.00567618850618601,-3.887355705956E-05,1713350786.59451
-0.00582197029143572,-3.71185997209977E-05,1713350786.63684
-0.00607869913801551,-0.000108567088318523,1713350786.63782
-0.00594645226374269,-0.000100994322565384,1713350786.68065
-0.00624436279758811,-0.000128953470266424,1713350786.68193
-0.00629691546782851,-0.000143329714774154,1713350786.70138
-0.0060556442476809,-0.000110971144749783,1713350786.7027
-0.00605018716305494,-0.000122775047202595,1713350786.78485
-0.00605535600334406,-0.000127607199829072,1713350786.78596
-0.00607353076338768,-0.00011981806892436,1713350786.79677
-0.00607316987589002,-9.30609385250136E-05,1713350786.79763
-0.00609285943210125,-0.000141526674269699,1713350786.84149
-0.00609807623550296,-0.000146382866660133,1713350786.84273
-0.00611377460882068,-8.58728162711486E-05,1713350786.88087
-0.00616731261834502,-0.000152633409015834,1713350786.88257
-0.00622186064720154,-0.000177875976078212,1713350786.90935
-0.00610882230103016,-0.000268100120592862,1713350786.91078
-0.00625140639021993,-0.000180400238605216,1713350786.96152
-0.00603155605494976,-0.000196723762201145,1713350786.96365
-0.00614889757707715,-0.000181890747626312,1713350786.98243
-0.0060913204215467,-0.000221317241084762,1713350786.98341
-0.0060977153480053,-0.00022896213340573,1713350787.02905
-0.00613774312660098,-0.00018689117860049,1713350787.06044
-0.00614214222878218,-0.000196315071661957,1713350787.06216
-0.00616190349683166,-0.000188934631296434,1713350787.06364
-0.00622279848903418,-0.000196098713786341,1713350787.11679
-0.00616272119805217,-0.000224755029194057,1713350787.11789
-0.00616702437400818,-0.000193189800484106,1713350787.16665
-0.00616591842845082,-0.000182636009412818,1713350787.16747
-0.00618471810594201,-0.00016537489136681,1713350787.20534
-0.0061603169888258,-0.000181914787390269,1713350787.20691
-0.0061795492656529,-0.000206916956813075,1713350787.2329
-0.00617539044469595,-0.000170735933352262,1713350787.23463
-0.00617202464491129,-0.000122414450743236,1713350787.2615
-0.0061902953311801,-0.000252257421379909,1713350787.26373
-0.00619637779891491,-0.000199320144020021,1713350787.33688
-0.00619589723646641,-0.000181289738975465,1713350787.33853
-0.0062112589366734,-0.000204128256882541,1713350787.36892
-0.00620548939332366,-0.000196964174392633,1713350787.3707
-0.00619272375479341,-0.000193983141798526,1713350787.40934
-0.00618928577750921,-0.000225139679969288,1713350787.4108
-0.0061781071126461,-0.000232880745898001,1713350787.43727
-0.00618154462426901,-0.000233433675020933,1713350787.43898
-0.0061749336309731,-0.000227255251957104,1713350787.46505
-0.00618039071559906,-0.00023434721515514,1713350787.4665
-0.00618678564205766,-0.000237905216636136,1713350787.51747
-0.00617099087685347,-0.000230380523134954,1713350787.51913
-0.00617760233581066,-0.000232856691582128,1713350787.53885
-0.00618048710748553,-0.000248074356932193,1713350787.53933
-0.00616829842329025,-0.000239564004004933,1713350787.62461
-0.00616209581494331,-0.000251680437941104,1713350787.6261
-0.00616548582911491,-0.000244516355451196,1713350787.63263
-0.00615916308015585,-0.000242953727138229,1713350787.63366
-0.00617577508091927,-0.000253531557973474,1713350787.66101
-0.00609108014032245,-0.000207277567824349,1713350787.66194
-0.00615820148959756,-0.000249396602157503,1713350787.71339
-0.00616159103810787,-0.000261464942013845,1713350787.7155
-0.00612879963591695,-0.000213744468055665,1713350787.80236
-0.00616930797696114,-0.000259469583397731,1713350787.80351
-0.00615512439981103,-0.000248795578954741,1713350787.81313
-0.00611911155283451,-0.000240790075622499,1713350787.81434
-0.00597599800676107,-0.000206532306037843,1713350787.83688
-0.00605146121233702,-0.000214946499909274,1713350787.83825
-0.00639488035812974,-0.000337168603437021,1713350787.90887
-0.00609807623550296,-0.000282284046988934,1713350787.9103
-0.00588000426068902,-0.000218985311221331,1713350787.91718
-0.00592731591314077,-0.000204753305297345,1713350787.91873
-0.00642673438414931,-0.000340967031661421,1713350787.94068
-0.00602720445021987,-0.000277379789622501,1713350787.94173
-0.00582237914204598,-0.000210138387046754,1713350788.00535
-0.00579091021791101,-0.000210450918530114,1713350788.007
-0.00611983286216855,-0.000265311420662329,1713350788.0169
-0.00581386871635914,-0.000187059471500106,1713350788.01843
-0.00546602625399828,-0.000156407768372446,1713350788.07313
-0.00586365675553679,-0.000278317369520664,1713350788.07475
-0.00589644815772772,-0.00018472752708476,1713350788.10921
-0.00588930817320943,-0.000221221082028933,1713350788.11062
-0.00573328463360667,-0.000264614267507568,1713350788.20111
-0.00528944842517376,-7.16408158041304E-06,1713350788.20277
-0.00631283037364483,-0.000322816398693249,1713350788.24951
-0.00609641708433628,-0.000269470445346087,1713350788.25071
-0.00562515063211322,-0.000160446579684503,1713350788.28947
-0.00602804590016604,-0.000281683052890003,1713350788.29113
-0.00578742427751422,-0.000185088138096035,1713350788.31274
-0.00551502080634236,-0.000148185907164589,1713350788.31436
-0.00559084443375468,-0.00020126742310822,1713350788.35714
-0.00627400493249297,-0.000326855224557221,1713350788.35888
-0.00592709984630346,-0.000269470445346087,1713350788.3696
-0.00585815124213696,-0.000227086973609403,1713350788.37068
-0.00541606964543462,-0.000177683657966554,1713350788.37673
-0.00541893066838384,-0.000195521730347537,1713350788.37804
-0.00623005861416459,-0.000273605430265889,1713350788.46494
-0.00592409446835518,-0.000240645837038755,1713350788.46635
-0.00570962904021144,-0.000182563890120946,1713350788.53695
-0.00580485351383686,-0.000288991373963654,1713350788.53819
-0.00595270283520222,-0.000215571548324078,1713350788.5532
-0.00603386387228966,-0.000272956327535212,1713350788.55465
-0.00589736131951213,-0.00024439615663141,1713350788.5616
-0.00583798158913851,-0.000243266258621588,1713350788.56276
-0.0059909513220191,-0.000264710426563397,1713350788.60121
-0.00600453419610858,-0.000276081584161147,1713350788.60265
-0.00602129055187106,-0.000319234357448295,1713350788.65307
-0.00604569166898727,-0.000289952993625775,1713350788.65483
-0.0060666068457067,-0.000278485647868365,1713350788.68556
-0.00597955612465739,-0.000300170213449746,1713350788.68765
-0.00604191748425365,-0.000287861446850002,1713350788.75679
-0.00601342925801873,-0.000343058549333364,1713350788.75826
-0.0061973393894732,-0.000323489541187882,1713350788.77377
-0.0059143821708858,-0.0003199796192348,1713350788.77552
-0.00598515756428242,-0.000392389745684341,1713350788.79756
-0.00605485122650862,-0.00029476109193638,1713350788.79807
-0.0060629528015852,-0.000325196422636509,1713350788.82067
-0.00605910643935204,-0.000310579780489206,1713350788.82217
-0.00606917915865779,-0.000304040731862187,1713350788.90854
-0.0060899262316525,-0.000327937043039128,1713350788.90958
-0.0060654291883111,-0.000286010326817632,1713350788.9248
-0.00608725799247623,-0.000329643924487755,1713350788.92645
-0.00604335963726044,-0.000323946325806901,1713350788.96474
-0.00606107758358121,-0.000316397577989846,1713350788.96594
-0.0060668233782053,-0.000329740083543584,1713350788.99276
-0.00607841089367867,-0.000304617715300992,1713350788.99416
-0.00609930232167244,-0.000323225103784353,1713350789.02475
-0.00608475739136338,-0.000319474784191698,1713350789.02634
-0.00608968595042825,-0.000352362229023129,1713350789.06462
-0.00609093578532338,-0.000335533870384097,1713350789.06634
-0.00608879653736949,-0.000315868703182787,1713350789.16078
-0.00609879707917571,-0.000328201480442658,1713350789.16231
-0.00609834026545286,-0.000331062328768894,1713350789.21813
-0.00609552767127752,-0.000356929929694161,1713350789.21892
-0.00609108014032245,-0.000359694589860737,1713350789.23055
-0.00608343537896872,-0.000330797862261534,1713350789.23178
-0.00610177824273706,-0.000352602655766532,1713350789.27725
-0.00608141580596566,-0.0003339231479913,1713350789.30074
-0.00608757045120001,-0.000350222631823272,1713350789.33281
-0.0060716075822711,-0.000358468532795086,1713350789.33392
-0.00607194378972054,-0.000351136171957478,1713350789.34137
-0.00607881974428892,-0.000344428844982758,1713350789.34263
-0.00610548071563244,-0.000355511554516852,1713350789.34345
-0.00609747506678104,-0.000398375850636512,1713350789.34438
-0.00608682492747903,-0.000371618720237166,1713350789.39698
-0.00607100641354919,-0.000358107936335728,1713350789.39806
-0.00610120128840208,-0.000369070417946205,1713350789.41725
-0.00604879297316074,-0.000352434348315001,1713350789.41889
-0.00606631860136986,-0.000355295196641237,1713350789.46131
-0.00610273983329535,-0.000370801339158788,1713350789.46295
-0.00600138492882252,-0.000349837966496125,1713350789.53785
-0.0061077643185854,-0.000392678222851828,1713350789.53916
-0.00598058989271522,-0.000346808868926018,1713350789.56104
-0.0060419412329793,-0.000373493880033493,1713350789.56258
-0.0060924026183784,-0.000379840581445023,1713350789.60522
-0.00597164686769247,-0.00036294007441029,1713350789.60654
-0.00587185472249985,-0.000344164407579228,1713350789.62861
-0.00604059500619769,-0.000390322267776355,1713350789.63021
-0.00588957220315933,-0.000337649427819997,1713350789.66871
-0.00579405948519707,-0.000327937043039128,1713350789.6698
-0.00606422685086727,-0.000392029120121151,1713350789.71663
-0.00596210267394781,-0.000330894021317363,1713350789.71833
-0.00598131120204926,-0.000376619136659428,1713350789.75288
-0.0056371227838099,-0.000318993959808722,1713350789.75449
-0.00577848125249147,-0.000348083034623414,1713350789.80463
-0.00612706877291203,-0.000448163802502677,1713350789.83282
-0.00560861080884934,-0.0002691819681786,1713350789.85708
-0.00568539602681994,-0.000306805421132594,1713350789.85832
-0.00588416308164597,-0.00047689225175418,1713350789.88109
-0.00574395898729563,-0.000295842910418287,1713350789.88262
-0.00554160960018635,-0.000297597871394828,1713350789.94084
-0.00589639972895384,-0.000360415811883286,1713350789.94254
-0.00556432781741023,-0.000510837475303561,1713350789.96482
-0.00582920666784048,-0.000264133443124592,1713350789.96633
-0.00542328180745244,-0.000238145614275709,1713350789.99297
-0.00490818917751312,-0.000221052789129317,1713350789.99464
-0.00594630790874362,-0.000517424603458494,1713350790.04477
-0.0060505960136652,-0.000415035930927843,1713350790.0464
-0.0055203097872436,-0.000223913622903638,1713350790.06488
-0.00607413146644831,-0.000389601045753807,1713350790.06644
-0.0052673309110105,-0.000229923753067851,1713350790.1209
-0.00564236333593726,-0.000309978757286444,1713350790.1226
-0.00526019092649221,-0.000262811227003112,1713350790.17264
-0.00515109486877918,-0.000201171264052391,1713350790.17397
-0.00596695905551314,-0.000363348779501393,1713350790.20114
-0.00553934974595904,-0.000260046566836536,1713350790.20268
-0.00612266967073083,-0.000355030730133876,1713350790.25298
-0.00598140712827444,-0.000334139505866915,1713350790.25463
-0.005787568166852,-0.00029846333200112,1713350790.27673
-0.00585733400657773,-0.000297381513519213,1713350790.2785
-0.00588173512369394,-0.000331254646880552,1713350790.31703
-0.00591556029394269,-0.000318801641697064,1713350790.31836
-0.00593647547066212,-0.000303391658235341,1713350790.35271
-0.00603102706372738,-0.000318705482641235,1713350790.37758
-0.00603516213595867,-0.00030057891854085,1713350790.40138
-0.00616668770089746,-0.000344116328051314,1713350790.40295
-0.00588397076353431,-0.000324931985232979,1713350790.43694
-0.00609879707917571,-0.000345101987477392,1713350790.4384
-0.00612562661990523,-0.000383013917598873,1713350790.45715
-0.0060108327306807,-0.000354742252966389,1713350790.4586
-0.00612346269190311,-0.000331687362631783,1713350790.51684
-0.00599496625363827,-0.000342145009199157,1713350790.51805
-0.0060760066844523,-0.000341303588356823,1713350790.54152
-0.00607420364394784,-0.000367459695553407,1713350790.54293
-0.00607850681990385,-0.000329090980812907,1713350790.60081
-0.0061306026764214,-0.000330100709106773,1713350790.60216
-0.00616387510672212,-0.000336327182594687,1713350790.65725
-0.00616115843877196,-0.000340029451763257,1713350790.65879
-0.00620183488354087,-0.000327985122567043,1713350790.68514
-0.00623926613479853,-0.000335101125529036,1713350790.68661
-0.00627797143533826,-0.000305362977087498,1713350790.70934
-0.00626145536080003,-0.000336062745191157,1713350790.71081
-0.00628790026530623,-0.000329932401655242,1713350790.75718
-0.00631316658109427,-0.000301684776786715,1713350790.75873
-0.00633227918297052,-0.000321085477480665,1713350790.7852
-0.00633761612698436,-0.000318152538966387,1713350790.78658
-0.00633420236408711,-0.000313248281599954,1713350790.83322
-0.00635874783620238,-0.000316181220114231,1713350790.83476
-0.00642377743497491,-0.000341351667884737,1713350790.86131
-0.00638663489371538,-0.000332047988194972,1713350790.86288
-0.00638742791488767,-0.000307334295939654,1713350790.95696
-0.00639093806967139,-0.000272764009423554,1713350790.95841
-0.0064115165732801,-0.000351881433743983,1713350790.9847
-0.00642005121335387,-0.000315411918563768,1713350790.98601
-0.00642175786197186,-0.00030702177900821,1713350791.01663
-0.00644788984209299,-0.000310892297420651,1713350791.01757
-0.00644190376624465,-0.000296564132440835,1713350791.06532
-0.00645180838182569,-0.000283534172922373,1713350791.06675
-0.00647041574120522,-0.000286899827187881,1713350791.09296
-0.00647128140553832,-0.000271922588581219,1713350791.09466
-0.00650686165317893,-0.000286130554741248,1713350791.13724
-0.00651691015809774,-0.000278653926216066,1713350791.13881
-0.00651265541091561,-0.00028250043396838,1713350791.19686
-0.0064848642796278,-0.000283245666651055,1713350791.19836
-0.00640858383849263,-0.000247016578214243,1713350791.22068
-0.00661795260384679,-0.000282260007224977,1713350791.22175
-0.0064896484836936,-0.000269879121333361,1713350791.24454
-0.00650174077600241,-0.00026971084298566,1713350791.24619
-0.00643423479050398,-0.000228697681450285,1713350791.26104
-0.00646906951442361,-0.000230572841246612,1713350791.26246
-0.00641033845022321,-0.000222086542635225,1713350791.31668
-0.00641851220279932,-0.000220187328523025,1713350791.3183
-0.00661501986905932,-0.000247617601417005,1713350791.36936
-0.00644613523036242,-0.000210402824450284,1713350791.37084
-0.00638136966153979,-0.000209104648092762,1713350791.39274
-0.00659472960978746,-0.000225572410272434,1713350791.39436
-0.00642764801159501,-0.000185929558938369,1713350791.44913
-0.00635583885014057,-0.000180760835064575,1713350791.45058
-0.00658367108553648,-0.000197589222807437,1713350791.4934
-0.00641411310061812,-0.000144123056088574,1713350791.49464
-0.00642646988853812,-0.000166096113389358,1713350791.51681
-0.00646378099918366,-0.000152537249960005,1713350791.51826
-0.00642625335603952,-0.000130059343064204,1713350791.58109
-0.00647128140553832,-0.000166120153153315,1713350791.58252
-0.00661021191626787,-0.000168091472005472,1713350791.60099
-0.00612281356006861,-8.18099651951343E-05,1713350791.60245
-0.00623412150889635,-0.000144171135616489,1713350791.63325
-0.00668860785663128,-0.000220259447814897,1713350791.63456
-0.00636946968734264,-9.55130744841881E-05,1713350791.68558
-0.00624078093096614,-5.90916533838026E-05,1713350791.68712
-0.00649508135393262,-0.000149411978782155,1713350791.70873
-0.006257897708565,-4.55808694823645E-05,1713350791.71039
-0.00596359325572848,-2.68052044702927E-05,1713350791.78494
-0.00656753964722157,-0.000129915089928545,1713350791.78673
-0.00690002040937543,-0.000184607328264974,1713350791.84499
-0.00621157139539719,-9.73882415564731E-05,1713350791.84659
-0.00634201522916555,-7.41169933462515E-05,1713350791.87728
-0.00650546699762344,-8.88538488652557E-05,1713350791.87905
-0.0066969501785934,-0.000138762014103122,1713350791.89343
-0.0060007837601006,-6.61114927424933E-06,1713350791.89473
-0.00635747332125902,-8.74114120961167E-05,1713350791.91688
-0.00641519483178854,-0.000122294237371534,1713350791.91861
-0.00692533515393734,-0.000155686560901813,1713350791.94876
-0.00567498663440347,0.000103927268355619,1713350791.95041
-0.00633509177714586,-4.84897755086422E-05,1713350791.99357
-0.00604658108204603,-8.60651471157325E-06,1713350791.99519
-0.00589228887110949,2.1949015717837E-05,1713350792.07348
-0.00669089192524552,-0.000123183737741783,1713350792.07506
-0.00632083555683494,-5.05091811646707E-05,1713350792.0975
-0.00633201468735933,-6.90203960402869E-05,1713350792.09887
-0.00636742636561394,-6.44526953692548E-05,1713350792.12503
-0.00641557946801186,-6.13755037193187E-05,1713350792.12637
-0.00635338667780161,-4.96437205583788E-05,1713350792.14548
-0.00635713711380959,-4.84657357446849E-05,1713350792.14773
-0.00638627400621772,-5.88272087043151E-05,1713350792.20192
-0.00662766536697745,-4.89946251036599E-05,1713350792.20281
-0.00629859836772084,-1.66841364261927E-05,1713350792.27049
-0.0063495640642941,-0.0000870508083608002,1713350792.27164
-0.00642233481630683,-1.99055702978512E-05,1713350792.28483
-0.00644428376108408,-8.26273462735117E-05,1713350792.28626
-0.0064507988281548,-0.00010279736306984,1713350792.30883
-0.00647861370816827,-8.35168466437608E-05,1713350792.31057
-0.00646539172157645,-0.000105321618320886,1713350792.36458
-0.00649024918675423,-0.000100898156233598,1713350792.36577
-0.00646269880235195,-0.000115610971988644,1713350792.40916
-0.00649181194603443,-0.000119649783300702,1713350792.41059
-0.00640257354825735,-6.45248146611266E-05,1713350792.42863
-0.00643118191510439,-0.000112653986434452,1713350792.4302
-0.00642271945253015,-9.27243745536543E-05,1713350792.48089
-0.00641983468085527,-5.37065716343932E-05,1713350792.48264
-0.00643469160422683,-9.96240123640746E-05,1713350792.5009
-0.00643560523167253,-8.06079406174831E-05,1713350792.50241
-0.00643834611400962,-6.50777510600164E-05,1713350792.59677
-0.00644433218985796,-6.07264119025785E-05,1713350792.61312
-0.00643752841278911,-5.2504547056742E-05,1713350792.62522
-0.00644476478919387,-8.34687671158463E-05,1713350792.62701
-0.00644671218469739,-5.55576953047421E-05,1713350792.63674
-0.00644365884363651,-8.39014974189922E-05,1713350792.63768
-0.00643228786066175,-6.10870192758739E-05,1713350792.66515
-0.00642062816768885,-5.06053438584786E-05,1713350792.66653
-0.0064153871499002,-5.13746417709626E-05,1713350792.73402
-0.00641252612695098,-4.69271399197169E-05,1713350792.73472
-0.00641985889524221,-5.92839787714183E-05,1713350792.74073
-0.00640115514397621,-4.2359435610706E-05,1713350792.74242
-0.00639940006658435,-3.85129496862646E-05,1713350792.83336
-0.0063966354355216,-6.45007748971693E-05,1713350792.83469
-0.00638252357020974,-6.97656578267924E-05,1713350792.83551
-0.00639064935967326,-6.82991812936962E-05,1713350792.83666
-0.00639201980084181,-6.80828161421232E-05,1713350792.89784
-0.00636374810710549,-6.33708696113899E-05,1713350792.89898
-0.0063424720428884,-6.64240214973688E-05,1713350792.9052
-0.00636442098766565,-5.99571139900945E-05,1713350792.90698
-0.00632730266079307,-5.16150466864929E-05,1713350792.95316
-0.00633655814453959,-5.93561017012689E-05,1713350792.95403
-0.00632403325289488,-5.56778977625072E-05,1713350792.9852
-0.00624181423336268,-3.1469069654122E-05,1713350792.98686
-0.00633653439581394,-7.34438581275754E-05,1713350793.02143
-0.0063120611011982,-5.64712354389485E-05,1713350793.02254
-0.00628770794719458,-4.8249370593112E-05,1713350793.08558
-0.00634889118373394,-6.91406021360308E-05,1713350793.08678
-0.00635663187131286,-0.000116812996566296,1713350793.11283
-0.00630177138373256,-6.88040308887139E-05,1713350793.13326
-0.00629172241315246,-7.64970100135542E-05,1713350793.1582
-0.00625587813556194,-5.59423424419947E-05,1713350793.15963
-0.00627092737704515,-6.43084495095536E-05,1713350793.19698
-0.00625965232029557,-5.87310460105073E-05,1713350793.19873
-0.00625804159790278,-6.87799911247566E-05,1713350793.22094
-0.00627244217321277,-6.49335052003153E-05,1713350793.22263
-0.00608704145997763,-3.22864507324994E-05,1713350793.26941
-0.00632095569744706,-9.09694135771133E-05,1713350793.27097
-0.00629600184038281,-7.33717388357036E-05,1713350793.31301
-0.00617844378575683,-5.52692072233185E-05,1713350793.3146
-0.00605814484879375,-4.49798571935389E-05,1713350793.34078
-0.00629597762599587,-0.00010094624303747,1713350793.34237
-0.00634252047166228,-0.000110298009531107,1713350793.38149
-0.00617832317948341,-8.11608697404154E-05,1713350793.38303
-0.00612406386062503,-8.28677511890419E-05,1713350793.42891
-0.00627131201326847,-7.90212652646005E-05,1713350793.43011
-0.00628633750602603,-8.96231431397609E-05,1713350793.47289
-0.00619673822075129,-8.72431337484159E-05,1713350793.47433
-0.00607677595689893,-6.63759419694543E-05,1713350793.52865
-0.00585257401689887,-3.41616105288267E-05,1713350793.52977
-0.00626515783369541,-0.000128640938783064,1713350793.56132
-0.00608249753713608,-6.88040308887139E-05,1713350793.56235
-0.00592171447351575,-7.23860721336678E-05,1713350793.57688
-0.00588154280558229,-4.79128029837739E-05,1713350793.57852
-0.00564392609521747,8.79883828019956E-06,1713350793.65348
-0.00619553634896874,-0.000117221687105484,1713350793.65447
-0.00575434416532517,-1.89199072337942E-05,1713350793.67365
-0.00556723680347204,-1.50012983795023E-05,1713350793.69695
-0.00566553836688399,-3.8224461604841E-05,1713350793.75336
-0.00590156856924295,-5.35382896487135E-05,1713350793.7548
-0.00581516698002815,-3.88014377676882E-05,1713350793.77287
-0.0056896754540503,-3.93784102925565E-05,1713350793.7744
-0.00635874783620238,-0.000176697983988561,1713350793.81662
-0.00563656957820058,1.23568388517015E-05,1713350793.81785
-0.00578499585390091,-7.51747793401591E-05,1713350793.8411
-0.00494800042361021,4.21190306951758E-05,1713350793.84256
-0.00600475072860718,-0.000131646011141129,1713350793.86148
-0.00589399598538876,-0.000104311919130851,1713350793.86324
-0.00560067733749747,-6.68327083985787E-06,1713350793.91735
-0.00573958363384008,-6.45488544250838E-05,1713350793.9189
-0.00597078120335937,-0.00011291843111394,1713350793.94496
-0.00589248118922114,-9.50563044170849E-05,1713350793.94649
-0.00567315937951207,-6.45248146611266E-05,1713350793.99695
-0.00595522718504071,-0.000108470929262694,1713350793.99845
-0.00597229599952698,-9.75324801402167E-05,1713350794.02084
-0.00597073324024677,-0.00010753334936453,1713350794.0223
-0.00596792064607143,-0.000113375201181043,1713350794.05779
-0.00600354839116335,-0.000129722771816887,1713350794.05929
-0.00600527971982956,-0.000130203581647947,1713350794.11675
-0.0060104001313448,-0.000127703358884901,1713350794.11789
-0.00612401589751244,-0.00013371350360103,1713350794.13676
-0.00610490376129746,-4.04361926484853E-05,1713350794.1383
-0.00590493436902761,-0.000207998775294982,1713350794.17709
-0.00605771178379655,-0.00019169929146301,1713350794.17839
-0.00604684557765722,-0.000182539835805073,1713350794.29706
-0.00600268319249153,-0.00016374014376197,1713350794.29877
-0.0060467254370451,-0.0002226154319942,1713350794.30561
-0.0060604764148593,-0.00019306960166432,1713350794.30642
-0.00605922657996416,-0.000220547939534299,1713350794.32868
-0.00608446914702654,-0.000183164898771793,1713350794.33044
-0.00601912708953023,-0.000231798912864178,1713350794.349
-0.00604872079566121,-0.000258411804679781,1713350794.35019
-0.00603073835372925,-0.000183477430255152,1713350794.38523
-0.00607718480750918,-0.000200113485334441,1713350794.38669
-0.00605552410706878,-0.000188574020285159,1713350794.43731
-0.00603302242234349,-0.000187444107723422,1713350794.43889
-0.00606490019708872,-0.000189583719475195,1713350794.48102
-0.00606340961530805,-0.000190160688362084,1713350794.4824
-0.00603689299896359,-0.000184967939276248,1713350794.50081
-0.00607720902189612,-0.000214874366065487,1713350794.50223
-0.00605691876262426,-0.000190064529306255,1713350794.53325
-0.00611468823626637,-0.000232568214414641,1713350794.53518
-0.00608083885163069,-0.000243723028688692,1713350794.58904
-0.0060590822249651,-0.000213888706639409,1713350794.59063
-0.00607081409543753,-0.000212854967685416,1713350794.6331
-0.00605612527579069,-0.000208479585126042,1713350794.6341
-0.0060442490503192,-0.000192829189472832,1713350794.66491
-0.00605427427217364,-0.000205811084015295,1713350794.66638
-0.00606028409674764,-0.000224634830374271,1713350794.72064
-0.00605271151289344,-0.000217374588828534,1713350794.72222
-0.00603900849819183,-0.000100826036941726,1713350794.74876
-0.00608711363747716,-0.000320797000313178,1713350794.75005
-0.00606071716174483,-0.000232327802223153,1713350794.80093
-0.00606288062408567,-0.00021485032630153,1713350794.80257
-0.00605780817568302,-0.000210619196877815,1713350794.82869
-0.0060508125461638,-0.000239612098084763,1713350794.83021
-0.00604167673736811,-0.000228505363338627,1713350794.87311
-0.00602746894583106,-0.000193670610315166,1713350794.87483
-0.00603852747008204,-0.00023540499387309,1713350794.91336
-0.00603008922189474,-0.000228216871619225,1713350794.91487
-0.00604186905547977,-0.000236655105254613,1713350794.93748
-0.00603583501651883,-0.000225187759497203,1713350794.9388
-0.00601727562025189,-0.00022574070317205,1713350794.99326
-0.00598902814090252,-0.000234082763199694,1713350794.99479
-0.00603989791125059,-0.000240429464611225,1713350795.03342
-0.00595835223793983,-0.000223841489059851,1713350795.03467
-0.00596267962828279,-0.000210378784686327,1713350795.06093
-0.00607442017644644,-0.000252545898547396,1713350795.06213
-0.00589082250371575,-0.000223841489059851,1713350795.11768
-0.00603256560862064,-0.000251752557232976,1713350795.11918
-0.00575251737609506,-0.000202036724658683,1713350795.17307
-0.00599316321313381,-0.000236582985962741,1713350795.1745
-0.00594116328284144,-0.000237809057580307,1713350795.22093
-0.00595453009009361,-0.000234683786402456,1713350795.22221
-0.00580800278112292,-0.000230500721954741,1713350795.27305
-0.00598037336021662,-0.000277307670330629,1713350795.27463
-0.00572792394086719,-0.000175760404090397,1713350795.29666
-0.00532156648114324,-0.000148185907164589,1713350795.29813
-0.00618697796016932,-0.000295915029710159,1713350795.39329
-0.00587709527462721,-0.000261945766396821,1713350795.3948
-0.0055393255315721,-0.000210667276405729,1713350795.45281
-0.00579523714259267,-0.000315508077619597,1713350795.45438
-0.00584295764565468,-0.000233385595493019,1713350795.47353
-0.00560930790379643,-0.000172394735272974,1713350795.4746
-0.00492376741021872,-9.70035907812417E-05,1713350795.49719
-0.00506118359044194,-4.76243149023503E-05,1713350795.49864
-0.0059417886659503,-0.000254397018579766,1713350795.5213
-0.00545809278264642,-0.000172154323081486,1713350795.52264
-0.00518234772607684,-0.000146623264299706,1713350795.55421
-0.00627489434555173,-0.000433018256444484,1713350795.55492
-0.00559161370620132,-0.000145998215884902,1713350795.5691
-0.00518261222168803,-0.000117293806397356,1713350795.57048
-0.00576263852417469,-0.000287813367322087,1713350795.62524
-0.00578057253733277,-0.000166865414939821,1713350795.62649
-0.00547898374497891,-0.00014698387531098,1713350795.64862
-0.0050026448443532,-8.72431337484159E-05,1713350795.6498
-0.00558899343013763,-0.000219706518691964,1713350795.70155
-0.00588526902720332,-0.000237616724916734,1713350795.70257
-0.00564890261739492,-0.000205690885195509,1713350795.74494
-0.00587154179811478,-0.000222375019802712,1713350795.7461
-0.00533048575744033,-0.000202325216378085,1713350795.79687
-0.00569688761606813,-0.000177034555235878,1713350795.79824
-0.00569647876545787,-0.000216653366805986,1713350795.85296
-0.00571645656600595,-0.00014085354632698,1713350795.85416
-0.00577881745994091,-0.000307382375467569,1713350795.90097
-0.00561488512903452,-0.00020549856708385,1713350795.90238
-0.00584995374083519,-0.000249372562393546,1713350795.92494
-0.00583613011986017,-0.000250694778515026,1713350795.98073
-0.00579619873315096,-0.000248987897066399,1713350796.00122
-0.00581213785335422,-0.000242424837779254,1713350796.00259
-0.00581648899242282,-0.000235116516705602,1713350796.03265
-0.00584009708836675,-0.000249901437200606,1713350796.03364
-0.0058512520045042,-0.000249709119088948,1713350796.06504
-0.00587007543072104,-0.000240453504375182,1713350796.06653
-0.00588791351765394,-0.000254757644142956,1713350796.08517
-0.00590048683807254,-0.000282211927697062,1713350796.08663
-0.00595284719020128,-0.000303127191727981,1713350796.13355
-0.00589731335639954,-0.000369166577002034,1713350796.135
-0.00591544015333056,-0.000342145009199157,1713350796.15715
-0.00592349376529455,-0.000320580642437562,1713350796.15881
-0.00587976397946477,-0.000315243640216067,1713350796.18953
-0.0059383986517787,-0.000309065217152238,1713350796.19083
-0.00599684147164226,-0.000264373840764165,1713350796.20531
-0.00600124057382345,-0.000320724881021306,1713350796.20687
-0.00598592683672905,-0.000329283328028396,1713350796.26091
-0.00600220216438174,-0.000274326623184606,1713350796.26277
-0.00599672133103013,-0.00025913302670233,1713350796.30114
-0.00601323693990707,-0.000279976171441376,1713350796.30256
-0.00601602578535676,-0.000269061769358814,1713350796.32523
-0.00604249443858862,-0.000272643810603768,1713350796.32669
-0.00603980198502541,-0.000267979921773076,1713350796.34891
-0.00610569678246975,-0.000281803251709789,1713350796.35041
-0.00602862285450101,-0.000256416416959837,1713350796.39292
-0.0060940133407712,-0.00027641816996038,1713350796.39418
-0.00609713839367032,-0.000277451908914372,1713350796.44474
-0.00609646551311016,-0.000259421503869817,1713350796.47297
-0.00611709197983146,-0.000281274347798899,1713350796.52865
-0.00612779008224607,-0.000284375593764707,1713350796.53013
-0.00611930387094617,-0.000275288242846727,1713350796.54906
-0.00613733427599072,-0.000258748361375183,1713350796.5504
-0.0061239437200129,-0.00023562136630062,1713350796.57705
-0.00613711774349213,-0.000312190502882004,1713350796.57864
-0.00614637369289994,-0.000278557767160237,1713350796.60534
-0.00616620713844895,-0.000217542867176235,1713350796.60662
-0.006171063054353,-0.000316517776809633,1713350796.62469
-0.00617914088070393,-0.000284111127257347,1713350796.62593
-0.00618736259639263,-0.000249011936830357,1713350796.67717
-0.00619289185851812,-0.000201988645130768,1713350796.67905
-0.00623077992349863,-0.000301949214190245,1713350796.74112
-0.0062229186296463,-0.000248483062023297,1713350796.74249
-0.00622943369671702,-0.000272739969659597,1713350796.77284
-0.00625549349933863,-0.000256632803939283,1713350796.7745
-0.00624907482415438,-0.000246824260102585,1713350796.81656
-0.00625857058912516,-0.000242593116126955,1713350796.81767
-0.00626417202875018,-0.000239924615016207,1713350796.84476
-0.0062816496938467,-0.000231774873100221,1713350796.84626
-0.0062987906858325,-0.000261464942013845,1713350796.86527
-0.0062768654897809,-0.000198166191694327,1713350796.86685
-0.00629066489636898,-0.000246583862463012,1713350796.91375
-0.00631150789558888,-0.00023990057525225,1713350796.91481
-0.00629854993894696,-0.000233000944717787,1713350796.96116
-0.00624013179913163,-0.00021348001610022,1713350796.96266
-0.00635958928614855,-0.000270023389020935,1713350796.98503
-0.006217653863132,-0.000241919988184236,1713350797.03441
-0.00614533992484212,-0.000214129118830897,1713350797.03464
-0.00619822880253196,-0.000220740272197872,1713350797.03581
-0.00629559298977256,-0.000231294063269161,1713350797.09338
-0.00595765514299274,-0.000180496397661045,1713350797.09504
-0.0063417749479413,-0.000231197904213332,1713350797.10069
-0.00553968641906977,-2.72860161203425E-05,1713350797.10198
-0.00580773828551173,-0.000282043649349362,1713350797.15329
-0.00645721750333905,-0.000335533870384097,1713350797.15484
-0.00591851724311709,-7.05349521012977E-05,1713350797.2008
-0.00588204758241773,-0.000130299740703776,1713350797.20227
-0.00597128644585609,-0.000297285354463384,1713350797.22495
-0.00556846288964152,4.67828976979945E-05,1713350797.22643
-0.00629984820261598,-0.000180520437425002,1713350797.26484
-0.00641663745045662,-0.000359430152457207,1713350797.2663
-0.00562269845977426,1.63235290528974E-05,1713350797.31695
-0.00543205672875047,6.01975189056247E-05,1713350797.31833
-0.00651972321793437,-0.000239467844949104,1713350797.35292
-0.00625501247122884,-0.000122606768854894,1713350797.35446
-0.0053425058722496,5.67837632843293E-05,1713350797.38137
-0.00530841620638967,-1.32703798954026E-05,1713350797.3831
-0.00652094930410385,-0.000234130842727609,1713350797.42485
-0.00547936884686351,-1.94728409042E-06,1713350797.42602
-0.00699038896709681,-0.000254709564615041,1713350797.46114
-0.00638853386044502,-0.000117750576464459,1713350797.46258
-0.00560930790379643,-9.32773036765866E-06,1713350797.50921
-0.00622712587937713,-0.00011363964586053,1713350797.51077
-0.00519218016415834,4.84657357446849E-05,1713350797.5887
-0.00568203022703528,5.60144644623506E-06,1713350797.58989
-0.00642610946670175,-0.000205522606847808,1713350797.59104
-0.00649486528709531,-7.90212652646005E-05,1713350797.59216
-0.00622118776664138,-4.88263431179803E-05,1713350797.6367
-0.00588250439614058,-8.19782508187927E-06,1713350797.63788
-0.00611036084592342,-6.23852101853117E-05,1713350797.66065
-0.00617490941658616,-5.6952045270009E-05,1713350797.66211
-0.00551530905067921,5.08938283019234E-05,1713350797.70502
-0.00611860677599907,-5.03649389429484E-05,1713350797.70662
-0.00607790611684322,-3.63493018085137E-05,1713350797.79706
-0.00608757045120001,-3.68781911674887E-05,1713350797.79803
-0.00579667976126075,-3.12046249746345E-05,1713350797.82118
-0.00624039582908154,-0.000114024296635762,1713350797.82254
-0.0061495709232986,-8.49352363729849E-05,1713350797.8735
-0.00615885062143207,-7.10157619323581E-05,1713350797.87466
-0.00616962090134621,-5.55096121388487E-05,1713350797.88517
-0.00609584013000131,-6.43084495095536E-05,1713350797.88656
-0.00612153951078653,-8.65699985297397E-05,1713350797.89731
-0.00620092125609517,-0.000127318708109669,1713350797.89887
-0.00619253143668175,-0.000105562023236416,1713350797.97686
-0.00622772658243775,-8.33966405480169E-05,1713350797.97794
-0.0062482813373208,-4.54847067885567E-05,1713350797.997
-0.00628261128440499,-9.65468207141385E-05,1713350797.99846
-0.00629181880503893,-7.1785063482821E-05,1713350798.02932
-0.00627991883084178,-3.56761665898375E-05,1713350798.03075
-0.00630648341029882,-6.35151154710911E-05,1713350798.05668
-0.00631040195003152,-8.05117815616541E-05,1713350798.05788
-0.00632672570645809,-6.67125059408136E-05,1713350798.12849
-0.00636295462027192,-7.69778198446147E-05,1713350798.12999
-0.00632042717188597,-7.08715233486146E-05,1713350798.15334
-0.00632468238472939,-7.78673202148639E-05,1713350798.15469
-0.00634432351216674,-7.51026527723297E-05,1713350798.18449
-0.00633864989504218,-6.07504516665358E-05,1713350798.18581
-0.00633465917780995,-8.26273462735117E-05,1713350798.23349
-0.00634732842445374,-7.96222811914049E-05,1713350798.23475
-0.00633759191259742,-9.08011279534549E-05,1713350798.27668
-0.00633552437648177,-8.07762262411416E-05,1713350798.27838
-0.0063410778529942,-8.39255371829495E-05,1713350798.29714
-0.0063390345312655,-9.02001193026081E-05,1713350798.29849
-0.00634014047682285,-7.55834698793478E-05,1713350798.33277
-0.00633506756275892,-8.69786817929708E-05,1713350798.33385
-0.0063406452536583,-8.3877457655035E-05,1713350798.37663
-0.00633893813937902,-9.10415328689851E-05,1713350798.37774
-0.00633706292137504,-8.13772348919883E-05,1713350798.43699
-0.00631030602380633,-7.55594228394329E-05,1713350798.43848
-0.006339515093714,-7.8973185736686E-05,1713350798.45304
-0.00630569038912654,-8.93586984602734E-05,1713350798.45455
-0.0063141523860395,-8.81085870787501E-05,1713350798.52534
-0.00630028126761317,-8.11368299764581E-05,1713350798.52678
-0.00633941916748881,-0.000105994753539562,1713350798.54857
-0.00634612655267119,-0.000147128128446639,1713350798.5498
-0.00630876747891307,-0.000114096415927634,1713350798.6011
-0.00628580851480365,-0.000107990119431634,1713350798.60227
-0.00624585337936878,-8.08002660050988E-05,1713350798.61762
-0.00629528053104878,-0.000106451523606665,1713350798.61865
-0.00623472267761827,-8.6690197349526E-05,1713350798.66524
-0.00625897943973541,-0.000110129723907448,1713350798.66676
-0.00623741513118148,-0.000110971144749783,1713350798.72082
-0.00625299336388707,-0.000115178241685499,1713350798.72262
-0.00624467525631189,-0.000110346089059021,1713350798.75682
-0.00624061236158013,-9.66189400060102E-05,1713350798.75846
-0.00613810354843736,-7.63768039178103E-05,1713350798.78248
-0.00628753937780857,-0.000129506399389356,1713350798.78298
-0.00622491398826242,-0.000113134796265513,1713350798.8296
-0.00605138950049877,-5.96205463807564E-05,1713350798.83096
-0.00622832775115967,-0.000125179110909812,1713350798.87695
-0.00612365501001477,-8.11608697404154E-05,1713350798.87855
-0.00610182620584965,-0.0000971718764049001,1713350798.89745
-0.00615695118904114,-0.000126861938042566,1713350798.89887
-0.00599857233464718,-7.77471141191199E-05,1713350798.94071
-0.00612579472362995,-0.000107148698589299,1713350798.94222
-0.00619589723646641,-0.000135155933094211,1713350798.98483
-0.00534983817487955,6.92367611918598E-05,1713350798.98591
-0.00567830400541425,-8.4502506069839E-05,1713350799.03279
-0.00626890826970339,-0.000142464254167862,1713350799.03428
-0.00443322025239468,0.000156648180563934,1713350799.05325
-0.00655289925634861,-0.000220836431253701,1713350799.0546
-0.00651376089081168,-0.000383374543162063,1713350799.09289
-0.00565080158412457,5.57019375264645E-05,1713350799.09408
-0.00561873149126768,0.000108927699329797,1713350799.1528
-0.00608759419992566,-0.000108687294414267,1713350799.15424
-0.00622012978419662,-0.000165422970894724,1713350799.18473
-0.00488424487411976,0.000151527536218055,1713350799.19253
-0.00508183427155018,0.000127390841953456,1713350799.22547
-0.00561923673376441,-0.000112750145490281,1713350799.22668
-0.00603924877941608,-0.00010094624303747,1713350799.27711
-0.0046655242331326,0.000193478292203508,1713350799.27842
-0.00467211101204157,0.000116981282189954,1713350799.29743
-0.00646231416612864,-0.000205835123779252,1713350799.29911
-0.00530791142955422,-1.81265695573529E-05,1713350799.35659
-0.006307493429631,-0.000153258457430638,1713350799.35751
-0.00613764673471451,-0.000110346089059021,1713350799.37314
-0.00475226249545813,0.000113856011012103,1713350799.37467
-0.00546174682676792,5.01485737913754E-05,1713350799.42945
-0.00597806554287672,-0.000123592428280972,1713350799.43086
-0.00600804435089231,-0.000109120024717413,1713350799.45724
-0.00546773290261626,-9.47197349887574E-06,1713350799.4586
-0.00582086434587836,-7.14244524715468E-05,1713350799.49717
-0.00584526546299458,-8.50794822326861E-05,1713350799.49858
-0.00561909237876534,-5.29132339579519E-05,1713350799.54496
-0.0059193829074502,-0.000123592428280972,1713350799.54667
-0.00587495556101203,-0.000128208208479919,1713350799.59351
-0.00587632600218058,-0.000113663685624488,1713350799.59498
-0.00589563045650721,-0.000118063107947819,1713350799.64875
-0.00589327467605472,-6.90203960402869E-05,1713350799.64995
-0.00587690295651555,-0.00014006020501256,1713350799.66884
-0.00588255235925317,-0.000146094374940731,1713350799.67026
-0.00589548656716943,-0.000159364761202596,1713350799.72077
-0.00590534321963787,-0.000177274967427365,1713350799.72243
-0.00591644970700145,-0.000165206613019109,1713350799.74541
-0.00595169328153133,-0.00016770682123024,1713350799.76904
-0.00595558760687709,-0.000154532608576119,1713350799.7772
-0.00597260845825076,-0.000134651083499193,1713350799.77849
-0.00597554119303823,-0.000163499731570482,1713350799.82139
-0.00598479714244604,-0.000118231393571477,1713350799.82309
-0.00598953291773796,-0.00016325933393091,1713350799.88533
-0.00599607219919562,-0.000154003719217144,1713350799.88669
-0.00599402841180563,-0.000124025158584118,1713350799.91363
-0.00600994331762195,-0.000182155199581757,1713350799.91502
-0.00602093013003469,-0.000160518698976375,1713350799.9371
-0.00600049551576376,-0.000165447010658681,1713350799.93873
-0.00601128954440355,-0.000165230652783066,1713350799.98484
-0.00601619388908148,-0.000173476553754881,1713350799.98637
-0.0060042217373848,-0.000157297268742695,1713350800.0372
-0.00600073579698801,-0.000156431808136404,1713350800.03861
-0.00605547614395618,-0.000190857870620675,1713350800.05689
-0.00605999585241079,-0.000226077259867452,1713350800.05833
-0.00601354939863086,-0.000149075407534838,1713350800.1132
-0.00601710751652718,-0.00020929696620442,1713350800.11461
-0.00601451098918915,-0.00017975113587454,1713350800.14064
-0.00601193867623806,-0.000182010946446098,1713350800.1421
-0.00600376492366195,-0.000171505234902725,1713350800.21308
-0.00600643362849951,-0.000179438618943095,1713350800.21424
-0.00599501421675086,-0.000178164467797615,1713350800.26492
-0.00602093013003469,-0.000190761711564846,1713350800.26643
-0.00601645838469267,-0.000189150989172049,1713350800.29731
-0.00598169583827257,-0.000172755346284248,1713350800.29898
-0.00602100184187293,-0.000194752443348989,1713350800.33775
-0.00601366953924298,-0.000193694650079124,1713350800.36872
-0.00602643517777324,-0.000212951126741245,1713350800.38913
-0.00600643362849951,-0.000202998344320804,1713350800.39066
-0.00596981961280108,-0.000201147224288434,1713350800.40544
-0.00598441250622273,-0.000216148517210968,1713350800.40713
-0.00595080386847258,-0.000222591392230242,1713350800.42528
-0.00604235008358955,-0.000227038894081488,1713350800.4268
-0.00597304105758667,-0.000218312168726698,1713350800.48069
-0.00596318440511823,-0.000216148517210968,1713350800.48233
-0.00596433831378818,-0.000216725500649773,1713350800.50874
-0.00594789488241077,-0.000218216009670869,1713350800.5104
-0.00594541849568486,-0.000217350549064577,1713350800.55683
-0.00595212588086724,-0.00021886509784963,1713350800.55841
-0.00579057354480028,-0.000177106674527749,1713350800.58136
-0.00602874299511313,-0.000238289867411368,1713350800.58231
-0.00597496423870325,-0.000236462787142955,1713350800.61302
-0.00577723095193505,-0.000186386329005472,1713350800.61463
-0.00567659735679626,-0.000150301479152404,1713350800.657
-0.00596787268295884,-0.00025824352633208,1713350800.65814
-0.00610413402318955,-0.000278076971881092,1713350800.70913
-0.00548886461183429,-0.000105802428151947,1713350800.71111
-0.00555156217887998,-0.000137728275149129,1713350800.78925
-0.00577364908531308,-0.000192636871361174,1713350800.79053
-0.00530993100255728,-8.89980874489993E-05,1713350800.81313
-0.00620176270604134,-0.000302141532301903,1713350800.81473
-0.00621746154502034,-0.00033841872937046,1713350800.85293
-0.00538039393723011,-0.000119193013233598,1713350800.85438
-0.00516200950369239,-6.30102658760734E-05,1713350800.93263
-0.00633196625858545,-0.000371570640709251,1713350800.93409
-0.00575213273987174,-0.000249997596256435,1713350800.95333
-0.00543491775169969,-0.000151359257870354,1713350800.95498
-0.00583548098802567,-0.000236943596974015,1713350800.95649
-0.00545549625530839,-0.000133280773297884,1713350800.95783
-0.00521648535504937,-0.000103831102023833,1713350801.02141
-0.00571474945172668,-0.000196098713786341,1713350801.02295
-0.00577511545270681,-0.000219730558455922,1713350801.03319
-0.00525571964681149,-0.000151070766150951,1713350801.03471
-0.00562438135966659,-0.000176385467057116,1713350801.05287
-0.00535474251955748,-0.000122606768854894,1713350801.05453
-0.00540806446224451,-0.000112437621282879,1713350801.10483
-0.00546030467376113,-0.000209128687856719,1713350801.10641
-0.00593185983598232,-0.000265455688349903,1713350801.14467
-0.00535337207838893,-0.000161600532010198,1713350801.14597
-0.00513005955144763,-8.31321958685294E-05,1713350801.17733
-0.0057052536867559,-0.000233121143537574,1713350801.17899
-0.00580600742250681,-0.000225836862227879,1713350801.22104
-0.00563565641641617,-0.000210426878766157,1713350801.2227
-0.00554076815024018,-0.000200281763682142,1713350801.29735
-0.00565806217491627,-0.000252593978075311,1713350801.29818
-0.00586394499987364,-0.000250550539931282,1713350801.32148
-0.00569974817335606,-0.000251079443842173,1713350801.32231
-0.00570580642670393,-0.000258003099588677,1713350801.34863
-0.00573306856676936,-0.000264902744675055,1713350801.34973
-0.00570054166018963,-0.000245910719968379,1713350801.37309
-0.00573234725743532,-0.000254998041782528,1713350801.37476
-0.00572799611836672,-0.000235573286772706,1713350801.44506
-0.00575285404920578,-0.000299088394967839,1713350801.44645
-0.00572239467874169,-0.000319955579470843,1713350801.5371
-0.0057614604011178,-0.00035438165650703,1713350801.53856
-0.00576321547850966,-0.000297429593047127,1713350801.561
-0.00582324434071779,-0.000270864809863269,1713350801.5621
-0.00579331396147609,-0.000324355001794174,1713350801.58942
-0.00580918090417981,-0.000303175300359726,1713350801.59044
-0.00583391869440675,-0.000297117076115683,1713350801.62074
-0.00582091277465224,-0.000278197170700878,1713350801.62201
-0.00583134638145566,-0.000286947906715795,1713350801.64497
-0.00582194654271007,-0.000270936929155141,1713350801.64689
-0.00588978873565793,-0.000298799917800352,1713350801.66894
-0.00591570464894176,-0.00034644827246666,1713350801.67061
-0.00582242710515857,-0.000283606292214245,1713350801.6933
-0.00584956910461187,-0.000291323289275169,1713350801.69468
-0.00585492979735136,-0.00028805379406549,1713350801.74495
-0.00585615588352084,-0.000304401357425377,1713350801.7465
-0.00588666368275881,-0.000315508077619597,1713350801.82876
-0.00586502719670534,-0.000305435096379369,1713350801.83026
-0.0058480785228312,-0.000303175300359726,1713350801.85332
-0.00586416153237224,-0.000305915920762345,1713350801.85493
-0.00588070135563612,-0.000309185415972024,1713350801.86074
-0.00584596302360296,-0.000298246974125504,1713350801.8622
-0.00589264975860715,-0.000327143701724708,1713350801.9167
-0.00586435385048389,-0.000319234357448295,1713350801.91808
-0.00588562991470099,-0.000332576863002032,1713350801.94069
-0.00587829761207104,-0.000328730384353548,1713350801.94195
-0.00585072301328182,-0.000317719823215157,1713350802.0408
-0.00584459258243442,-0.00032166246091947,1713350802.04234
-0.00583562534302473,-0.000320099818054587,1713350802.09289
-0.00585608370602131,-0.000333466363372281,1713350802.09443
-0.00584670808166266,-0.000335846387315541,1713350802.12513
-0.0058364667929709,-0.00033418758539483,1713350802.12672
-0.00582206668332219,-0.000327576446579769,1713350802.14865
-0.00587832136079669,-0.000341664184816182,1713350802.15004
-0.00584081839770079,-0.000339644786436111,1713350802.1743
-0.00583358202129602,-0.00034539049374871,1713350802.17471
-0.00582408579066396,-0.00034582320949994,1713350802.19761
-0.00579261686652899,-0.000339428428560495,1713350802.19879
-0.00574242044240236,-0.000320556602673605,1713350802.22131
-0.0058334618806839,-0.000348034925991669,1713350802.22291
-0.00580139178782702,-0.000341616105288267,1713350802.27267
-0.00579189555719495,-0.000334019307047129,1713350802.27423
-0.00583670707419515,-0.000353828712832183,1713350802.29742
-0.00580689683556557,-0.000341519946232438,1713350802.29801
-0.00578800123184919,-0.000339260150212795,1713350802.3406
-0.00583490403369069,-0.000357506913132966,1713350802.34217
-0.00574121810495853,-0.000326254201354459,1713350802.39291
-0.00558507489040494,-0.000305723573546857,1713350802.39445
-0.00593294156715274,-0.000363300670869648,1713350802.42066
-0.0057004694826901,-0.000324162683682516,1713350802.42215
-0.00569732021540403,-0.000344909669365734,1713350802.47298
-0.00583250029012561,-0.000384528480935842,1713350802.47424
-0.0056097162887454,-0.000306709232972935,1713350802.50922
-0.00571462931111455,-0.000322912586852908,1713350802.53425
-0.00544174527749419,-0.000280144449789077,1713350802.56482
-0.00566962547600269,-0.000337288831360638,1713350802.56633
-0.00520879216492176,-0.00022864960192237,1713350802.59004
-0.00556980911642313,-0.000343371066264808,1713350802.59144
-0.00511063495650888,-0.000246463634539396,1713350802.60898
-0.00487109459936619,-0.000105225459265057,1713350802.61042
-0.0059925620444119,-0.000370801339158788,1713350802.68057
-0.00569174299016595,-0.000353756593540311,1713350802.68224
-0.00492739770561457,-0.000219946930883452,1713350802.73267
-0.00564721971750259,-0.000374335300875828,1713350802.73413
-0.00548927346244454,-0.000272812088951468,1713350802.74887
-0.00473211659118533,-0.000124385769595392,1713350802.75064
-0.00553139252588153,-0.000326759065501392,1713350802.77256
-0.00485200667753816,-0.000166023994097486,1713350802.77412
-0.00530041102319956,-0.000258219457464293,1713350802.82527
-0.00549691822379828,-0.000303511857055128,1713350802.82656
-0.00564772449433804,-0.000316325458697975,1713350802.84874
-0.0048707821406424,-0.000228433244046755,1713350802.85047
-0.00633701495826244,-0.000431960477726534,1713350802.90884
-0.00562192918732762,-0.000321566301863641,1713350802.90991
-0.00507257878780365,-0.000233794286032207,1713350802.93371
-0.00538851926103234,-0.000346207845723256,1713350802.93459
-0.00573052000254393,-0.000293222488835454,1713350803.01269
-0.00537580205127597,-0.000289952993625775,1713350803.01385
-0.00572003843262792,-0.000338731246301904,1713350803.03686
-0.00529545824974775,-0.00025374794495292,1713350803.03848
-0.0056055816821754,-0.000332096067722887,1713350803.08483
-0.00533796194940805,-0.00029978557722643,1713350803.11254
-0.00501959305256605,-0.000261440902249888,1713350803.14464
-0.00582132115960121,-0.00035649721394293,1713350803.14619
-0.00540438620373607,-0.000274398742476478,1713350803.16874
-0.00522086070850492,-0.000265455688349903,1713350803.16993
-0.00550362560898066,-0.000327336019836366,1713350803.19251
-0.00544371642172337,-0.000306300556985661,1713350803.19358
-0.00560399470850825,-0.000319907499942929,1713350803.21332
-0.00560281658545136,-0.000351977592799813,1713350803.21508
-0.00561704859137535,-0.000372412061551586,1713350803.26512
-0.00561019731685519,-0.000351953553035855,1713350803.26665
-0.00561507744714618,-0.000365993211744353,1713350803.30073
-0.00563459843397141,-0.000393687922041863,1713350803.30226
-0.00563596887513995,-0.000393399444874376,1713350803.3446
-0.00572561612352729,-0.000408905587391928,1713350803.34588
-0.00561565440148115,-0.000385586259653792,1713350803.40043
-0.00566647620871663,-0.000404289807192981,1713350803.40139
-0.00567926559597254,-0.000403568585170433,1713350803.42477
-0.00568376109004021,-0.000355824071448296,1713350803.42645
-0.00573227507993579,-0.000356377015123144,1713350803.45356
-0.00574258854612708,-0.000347722409060225,1713350803.45524
-0.00574254058301449,-0.000361353391781449,1713350803.51388
-0.00573864579200745,-0.000370488793123513,1713350803.51459
-0.00575835909694433,-0.000378061580704525,1713350803.53721
-0.00574718043208122,-0.000347770488588139,1713350803.53875
-0.00575713301077485,-0.000370921537978575,1713350803.5893
-0.00577386515215039,-0.000366401916835457,1713350803.59088
-0.00576246995478869,-0.000338587007718161,1713350803.61685
-0.00576922530308366,-0.000374215102056041,1713350803.6691
-0.0057692495174706,-0.000371498521417379,1713350803.6927
-0.00576992239803076,-0.000361473590601236,1713350803.69421
-0.00577098038047552,-0.00037140233325772,1713350803.71692
-0.00577107677236199,-0.000366786553058773,1713350803.71845
-0.00577655760571361,-0.000375248841010034,1713350803.74134
-0.00576571561396122,-0.000374792056391016,1713350803.74341
-0.00576970633119345,-0.000380778161343187,1713350803.81302
-0.00576360011473298,-0.000381355144781992,1713350803.81468
-0.0057760770432651,-0.000390947301639244,1713350803.83686
-0.00576920155435801,-0.000384215964004397,1713350803.83832
-0.00576963415369391,-0.000383951497497037,1713350803.86088
-0.00576465763151646,-0.000387461419450119,1713350803.86243
