harmstring,cuadriceps,t
0.000480546412291005,0.000305435096379369,1713350763.76493
0.000476291228551418,0.000303247419651598,1713350763.76649
0.000482421572087333,0.000300747196888551,1713350763.78082
0.000485763215692714,0.000303992652334273,1713350763.78236
0.000476387387607247,0.000301252031931654,1713350763.79275
0.00047847893438302,0.000306348636513576,1713350763.79389
0.000481988856336102,0.000300122133921832,1713350763.82478
0.000472540908958763,0.000298823957564309,1713350763.82632
0.000481988856336102,0.000302574277156964,1713350763.85287
0.000484945834614337,0.000298222934361547,1713350763.85417
0.000477661553304642,0.000306925619952381,1713350763.8771
0.000476339308079332,0.000303175300359726,1713350763.87851
0.000474392028991133,0.000302814674796537,1713350763.89793
0.000468694430310279,0.000306156318401918,1713350763.8999
0.00047504113172181,0.000308800779748708,1713350763.929
0.000461650546640158,0.000306300556985661,1713350763.93127
0.000456049107015133,0.000306949659716338,1713350763.95708
0.000459270522696897,0.000306132278637961,1713350763.95855
0.000463693984784186,0.000307406415231526,1713350764.0052
0.000453933520475403,0.000306540954625234,1713350764.00688
0.000456313544418663,0.000313560798531398,1713350764.05715
0.00045210644020699,0.000315171520924196,1713350764.05856
0.00044645692105405,0.000309954717522487,1713350764.08534
0.000444389443146065,0.000306901580188423,1713350764.08666
0.000430950778536499,0.000308993097860366,1713350764.11316
0.000423329911427572,0.000315147481160238,1713350764.11465
0.000417295756051317,0.000310219154926017,1713350764.20162
0.000393086927942932,0.000310507661197335,1713350764.20248
0.000379744422389194,0.000314859003992751,1713350764.25291
0.000358997436705977,0.000316878402372822,1713350764.25404
0.000344693311490118,0.00031759962439537,1713350764.27695
0.000310435541905463,0.000322936626616865,1713350764.27872
0.000325749366311356,0.000323922286042944,1713350764.33787
0.00028117818874307,0.000327864923747256,1713350764.33886
0.000293150369543582,0.000321926898322999,1713350764.36644
0.000270696502411738,0.000327167741488665,1713350764.36759
0.000257642503129318,0.000323056825436652,1713350764.41392
0.000225764742936008,0.000329956441419199,1713350764.41463
0.000195425571291707,0.000329139060340822,1713350764.43715
0.000165038320119493,0.000328369787894189,1713350764.43864
0.000130852669826709,0.000336639728629962,1713350764.4613
0.00011154812091263,0.000335317483404651,1713350764.46262
4.38018687418662E-05,0.000334812648361549,1713350764.48457
5.74328587390482E-05,0.000336808006977662,1713350764.48553
3.59646510332823E-05,0.000340197730110958,1713350764.51734
4.93552361149341E-05,0.00034529430558905,1713350764.51878
1.41358395921998E-05,0.00034397208946757,1713350764.5927
3.13969503622502E-05,0.0003501505125314,1713350764.59423
-1.13711766971392E-05,0.000348131114151329,1713350764.62087
-1.45204876389471E-05,0.000345198146533221,1713350764.62262
1.02172307379078E-05,0.000345606851624325,1713350764.64458
-1.77178808371536E-05,0.000334331823978573,1713350764.64568
-2.25259882427054E-05,0.000364142091711983,1713350764.68928
-3.15892721118871E-05,0.00033329808502458,1713350764.69087
-4.07968000217807E-05,0.000381571502657607,1713350764.74483
-6.59191719023511E-05,0.000372604379663244,1713350764.74648
-7.71701452322304E-05,0.000305266818031669,1713350764.77303
-7.47660888009705E-05,0.000353900832124054,1713350764.77459
-5.97888320044149E-05,0.00033921207068488,1713350764.80193
-9.63544953265227E-05,0.000357867509592324,1713350764.80301
-0.000140781412483193,0.000358516612323001,1713350764.86495
-0.000193093641428277,0.000354549934854731,1713350764.8663
-0.000238890876062214,0.000309762399410829,1713350764.893
-0.000248410942731425,0.000368012639228255,1713350764.89466
-0.000270864809863269,0.000395058246795088,1713350764.9447
-0.000314786855597049,0.000365151820005849,1713350764.94643
-0.000330365146510303,0.000366257678251714,1713350765.01329
-0.000343034509569406,0.000365440297173336,1713350765.01462
-0.000402631005272269,0.000368012639228255,1713350765.03731
-0.000376907642930746,0.000386283441912383,1713350765.03872
-0.000397895026253536,0.000372051435988396,1713350765.06129
-0.000387870124541223,0.000380513723939657,1713350765.06261
-0.000397919066017494,0.000377172080334276,1713350765.08964
-0.000422079814597964,0.000377628835849464,1713350765.09106
-0.000426503276685253,0.000387653766665608,1713350765.14068
-0.000420493131969124,0.000396837247535586,1713350765.14163
-0.0004453991423361,0.000403304147766903,1713350765.22116
-0.000460953364381567,0.000421334552811459,1713350765.22262
-0.000466675031930208,0.000403688783990219,1713350765.27261
-0.000474824773846194,0.000401981931645423,1713350765.27394
-0.000534421240445226,0.000396813207771629,1713350765.29688
-0.000601470354013145,0.000397197843994945,1713350765.2982
-0.000572357268538326,0.000398736447095871,1713350765.3253
-0.000516294676344842,0.000399337470298633,1713350765.3268
-0.000487229670397937,0.00039037034730427,1713350765.34487
-0.000488047051476315,0.000406525592552498,1713350765.34647
-0.000492109917104244,0.000410660548368469,1713350765.37681
-0.000454342225566506,0.000416622613556683,1713350765.37784
-0.000475449807709083,0.000403833051677793,1713350765.42886
-0.000475257489597425,0.000405035068979487,1713350765.42996
-0.00048720563063398,0.0004089777066838,1713350765.48527
-0.0004879989719484,0.000403760932385922,1713350765.4867
-0.000505452393554151,0.000401909783249721,1713350765.50951
-0.000518025597557426,0.000393159047234803,1713350765.51076
-0.000518891087267548,0.000383326463634148,1713350765.55692
-0.000503024319186807,0.00038895194302313,1713350765.55828
-0.000492013758048415,0.000384384242352098,1713350765.58094
-0.000468910788185895,0.000392606103559956,1713350765.58246
-0.00043313845526427,0.0004009481635876,1713350765.62907
-0.000417151488363743,0.00039618814480491,1713350765.63076
-0.00040739105315879,0.000390875182347372,1713350765.68089
-0.000369455054169521,0.000389360619010404,1713350765.68263
-0.000325989763950929,0.000394817849155515,1713350765.69681
-0.000286322872852907,0.000367051019566134,1713350765.69796
-0.000252377620199695,0.000383230304578319,1713350765.74865
-0.000215066698729061,0.000370705180102959,1713350765.74971
-0.000198671041289344,0.000371234054910019,1713350765.78164
-0.000209056554012932,0.000366738473530859,1713350765.78287
-0.000245429895585403,0.000368733861250803,1713350765.8287
-0.000310748058836907,0.000366594234947115,1713350765.87294
-0.000427657214459032,0.000353780633304268,1713350765.88109
-0.000511486607138068,0.000404025369789451,1713350765.88271
-0.000545840535778552,0.000394889968447387,1713350765.91369
-0.000535358849447221,0.000436239701230079,1713350765.91486
-0.000575819110963494,0.000366882712114602,1713350765.9373
-0.000598705664742738,0.000362290971679613,1713350765.93906
-0.000575290177948773,0.00035358831519261,1713350766.00933
-0.000593873555772007,0.00032034024479799,1713350766.0105
-0.000584521738346666,0.000381884019589052,1713350766.06986
-0.000590411713346839,0.000329788163071498,1713350766.07126
-0.000588248018175364,0.000336062745191157,1713350766.0926
-0.000520766247063875,0.000348804227542132,1713350766.09429
-0.000608634436503053,0.000298174854833633,1713350766.12125
-0.000581973465159535,0.000388471118640155,1713350766.12266
-0.000569568539503962,0.000489128869958222,1713350766.14517
-0.000595652556512505,0.000373445800505579,1713350766.14667
-0.000513337727170438,0.000211580816539936,1713350766.18872
-0.000540311215445399,0.000229491022764705,1713350766.19038
-0.000531031575519592,0.000515453284606338,1713350766.222
-0.000586853711865842,0.000342601764714345,1713350766.22363
-0.000425373378675431,0.000304978340864182,1713350766.26906
-0.00028382265008986,0.000355848111212254,1713350766.27082
-0.000300122133921832,0.00022631767205894,1713350766.29291
-0.000443187396740541,0.000174293934833258,1713350766.29443
-0.000510548998136073,0.000251584278885275,1713350766.34615
-0.000543196045327932,0.000277740386081859,1713350766.34677
-0.000506077485624701,0.000154773020767607,1713350766.39677
-0.000437489798059687,0.000262594840023667,1713350766.41708
-0.00049497076543048,0.000228216871619225,1713350766.44114
-0.000478454894619063,0.000292885932140052,1713350766.44252
-0.000439388997619972,0.000258219457464293,1713350766.46469
-0.000412343390053138,0.000234587612794712,1713350766.46631
-0.000396813207771629,0.000219922891119495,1713350766.51653
-0.000312767457216978,0.000224178060307167,1713350766.51761
-0.000310291274217889,0.000268340547336265,1713350766.54064
-0.000229611221584491,0.000270167627604678,1713350766.54251
-0.000314257980789989,0.000242905647610314,1713350766.59348
-0.000288534589344636,0.000305507215671241,1713350766.59471
-0.000303776294458657,0.000222639471758157,1713350766.62173
-0.000279230909654871,0.000256969360634685,1713350766.62302
-0.000351184251485392,0.000224250179599039,1713350766.67018
-0.000292741693556309,0.00023747248633299,1713350766.67125
-0.000296636251732707,0.000246752140810713,1713350766.70151
-0.000250646698987111,0.000333826988935471,1713350766.70289
-0.000294881290756166,0.000236462787142955,1713350766.74532
-0.000302454078337178,0.000229322744417004,1713350766.74682
-0.000289015413727611,0.000193358093383722,1713350766.7726
-0.000298030616249889,0.000207157354452647,1713350766.77383
-0.000321758619975299,0.000214874366065487,1713350766.81283
-0.000296804530080408,0.000290361669613048,1713350766.81423
-0.000278437568340451,0.000268340547336265,1713350766.86881
-0.000299641338642687,0.000224009781959467,1713350766.87002
-0.000283774570561945,0.000211676975595765,1713350766.94469
-0.000301684776786715,0.000224851202801801,1713350766.94556
-0.000263965164776891,0.000214489729842171,1713350766.96153
-0.000291323289275169,0.000238626424106769,1713350766.99261
-0.000259541702689603,0.000206099575734697,1713350767.01704
-0.000302237691357732,0.000221317241084762,1713350767.01884
-0.000279904052149504,0.000220908550545573,1713350767.06901
-0.000251728517469019,0.000253315200097859,1713350767.07059
-0.000227712022024207,0.000219201669096947,1713350767.1168
-0.000265672046225518,0.000223745330004022,1713350767.11808
-0.000269206007942557,0.00023434721515514,1713350767.15318
-0.000256368337431923,0.000252882484346628,1713350767.15473
-0.000277620187262073,0.000231462341616862,1713350767.17244
-0.00029687667847611,0.000230765173910186,1713350767.17399
-0.000268989620963112,0.00024312200548593,1713350767.20076
-0.000264902744675055,0.000223408758756705,1713350767.20228
-0.000242400798015296,0.00023324134235736,1713350767.22204
-0.00022864960192237,0.000236510866670869,1713350767.22275
-0.000279735744697973,0.000234539533266798,1713350767.24881
-0.00025692128110677,0.000233409635256976,1713350767.25058
-0.000216388929402456,0.000232952865189873,1713350767.29685
-0.000228192831855267,0.000222831789869815,1713350767.29836
-0.000204464813577943,0.000227447570068762,1713350767.34482
-0.000175135355675593,0.000234659746638499,1713350767.3464
-0.000162225580425002,0.000208792116609402,1713350767.44496
-0.000149460058310069,0.0002065563458018,1713350767.44652
-0.000140685253427364,0.000195377491763793,1713350767.48072
-0.000117317846161313,0.000186386329005472,1713350767.48205
-0.000112774185254239,0.000252858444582671,1713350767.53305
-9.71237968769856E-05,0.000202325216378085,1713350767.53468
-8.92865791684017E-05,8.22667352622375E-05,1713350767.58077
-0.000114817630674224,0.000185136217623949,1713350767.58242
-0.000180015587829985,8.3661092503462E-05,1713350767.60538
-0.000288823095615953,0.000202036724658683,1713350767.6067
-0.000466049968963489,0.00019412738038227,1713350767.62924
-0.000552860379684716,0.000220403700950555,1713350767.63069
-0.000588248018175364,0.000215884079807438,1713350767.6612
-0.000621159560978413,0.000158282928168774,1713350767.6627
-0.000608754635322839,0.000138329283799976,1713350767.68913
-0.000542763329576701,0.000122366356663406,1713350767.69053
-0.000512688595335931,0.000129001549794339,1713350767.71285
-0.00055855797836557,0.000175664245034568,1713350767.7139
-0.000525934970937669,0.000127006191178225,1713350767.73678
-0.000597671954892576,0.000239275526837446,1713350767.7377
-0.00065479229670018,0.000278605846688151,1713350767.79271
-0.000684338097926229,0.000234323175391182,1713350767.79413
-0.000780259841121733,0.00022759182320442,1713350767.84126
-0.000647556036710739,0.000294977449811995,1713350767.84275
-0.000628684239927679,0.000363685336196795,1713350767.8769
-0.000640896847471595,0.000244828901486471,1713350767.87847
-0.000604715838562697,0.000384840997867286,1713350767.92119
-0.000657172291539609,0.000276129663689062,1713350767.92265
-0.000645897292997688,0.000195665983483195,1713350767.95825
-0.000482637929962948,0.000350607268046588,1713350767.95889
-0.000346304033882916,0.00029264553450048,1713350767.97728
-0.00049850472714752,0.000216557207750157,1713350767.97895
-0.000629766087513417,0.000152513210196048,1713350768.08112
-0.000669577217195183,0.000188694219104946,1713350768.08268
-0.000632530718576163,0.000211725055123679,1713350768.12971
-0.000471338891657069,0.000191002109204419,1713350768.13058
-0.000442586402641609,0.000169822393218055,1713350768.1568
-0.00044857247848995,0.000205618765903637,1713350768.15828
-0.000407078507123515,0.000230500721954741,1713350768.18478
-0.000428690953413025,0.000213167499168776,1713350768.18636
-0.000390250119380653,0.000219297828152776,1713350768.21295
-0.000388591346563771,0.000220571979298256,1713350768.21396
-0.000331615243339911,0.000279567466350272,1713350768.2287
-0.000370849418686703,0.000216100437683053,1713350768.2297
-0.000348756148014218,0.000212133745662868,1713350768.31301
-0.000355583673808724,0.000216725500649773,1713350768.31447
-0.000281923450529575,0.000236510866670869,1713350768.33313
-0.000297237274935469,0.000216557207750157,1713350768.33442
-0.000287669128738344,0.000246006879024208,1713350768.36609
-0.00031495516304858,0.000261056266026571,1713350768.36684
-0.00031231070170179,0.000253723876085132,1713350768.38919
-0.000309305614791811,0.000217783279367723,1713350768.39075
-0.00031627737917006,0.000232784572290257,1713350768.41291
-0.00029740555328317,0.000242400798015296,1713350768.41457
-0.000319835380651057,0.000246103038080037,1713350768.45698
-0.000315580196911469,0.000225548370508477,1713350768.45882
-0.000313753116643056,0.000220427740714513,1713350768.5169
-0.000329716043779626,0.000295073637971655,1713350768.51843
-0.000311012496240437,0.000215980238863267,1713350768.53697
-0.000334668409777805,0.000210547077585943,1713350768.53881
-0.00030331953894347,0.000217590961256064,1713350768.58897
-0.000310411502141505,0.000199680755031295,1713350768.59047
-0.000303271459415555,0.000225764742936008,1713350768.65733
-0.000296251615509391,0.000221269161556847,1713350768.65849
-0.000313176162308082,0.00020020964439027,1713350768.69287
-0.000314594537485391,0.000225283933104947,1713350768.69457
-0.000294111989205703,0.000211604856303893,1713350768.71301
-0.000281634973362088,0.000203046423848718,1713350768.71457
-0.000269638723693788,0.000189896250958554,1713350768.73701
-0.000281947490293533,0.000197637302335352,1713350768.73833
-0.00026035908376798,0.000214633968425915,1713350768.78982
-0.000293294637231156,0.000194752443348989,1713350768.79203
-0.000225043520913459,0.000206243814318441,1713350768.81279
-0.000234611652558669,0.000199512462131679,1713350768.81415
-0.000239179367781617,0.000215836000279523,1713350768.86253
-0.000223144321353175,0.00020157995459158,1713350768.86304
-0.000208936355193146,0.000203984003746882,1713350768.88502
-8.50073629408143E-05,0.000221677852096036,1713350768.88638
-0.00019386294297874,0.000192684950889088,1713350768.93815
-0.000184943899512291,0.000186746940016747,1713350768.93908
-0.000180183866177686,0.000188309568329714,1713350769.02524
-0.000126381128211506,0.000196892040548846,1713350769.02755
-0.000149988947669044,0.000157778078573756,1713350769.06522
-0.000142656586831436,0.000175351713551208,1713350769.06661
-0.00011765441740863,0.000192035862710327,1713350769.09298
-0.000103398371720687,0.000189487560419366,1713350769.09455
-9.22916442505084E-05,0.000183261057827622,1713350769.11678
-0.000101859783171676,0.000136454124003649,1713350769.11848
-9.63304555625655E-05,0.000262114044744521,1713350769.16144
-0.000171072504599579,0.000184487129445188,1713350769.1886
-0.000235044382861815,0.000205859163543209,1713350769.22111
-0.000307117938064039,0.000165903780725785,1713350769.22246
-0.000443788419943303,0.000174654545844533,1713350769.24876
-0.00049487454816699,0.000122871220810339,1713350769.25016
-0.000506798678543419,0.00013340097211767,1713350769.26881
-0.000500500085763633,0.000122799086966552,1713350769.2703
-0.00051252031698823,0.000106643848994281,1713350769.29688
-0.000526271527633071,9.85421866062097E-05,1713350769.2979
-0.000580651219934225,0.000103157966805156,1713350769.34525
-0.000615966797340661,8.76758567756042E-05,1713350769.34669
-0.000678279902786016,0.000138858173158951,1713350769.39287
-0.00064005539752543,0.000141406475449912,1713350769.39447
-0.000683568825479597,0.000245117378653958,1713350769.42138
-0.000766340410336852,0.000193502331967466,1713350769.42273
-0.000683328369632363,0.000255214399658144,1713350769.47724
-0.000772735162172467,0.000280312728136778,1713350769.47889
-0.000836755149066448,0.000110442255390808,1713350769.50141
-0.000645536638330668,0.000118736243166495,1713350769.50281
-0.000709436426404864,0.000232496095122769,1713350769.57318
-0.000766604847740382,0.000129842970636673,1713350769.57486
-0.0007124655530788,0.000186650780960917,1713350769.60212
-0.000701671349816024,0.000313200202072039,1713350769.60304
-0.000435302121331915,0.000232592254178599,1713350769.61703
-0.000366329797543585,0.000170759973116219,1713350769.61852
-0.000461650546640158,0.000141983444336802,1713350769.68866
-0.000656378921121359,0.000198454683413729,1713350769.6902
-0.000595676596276462,0.000159893650561571,1713350769.70142
-0.00081151258200407,0.000190761711564846,1713350769.71679
-0.000714364752639085,0.000198550842469558,1713350769.75257
-0.000718235271051526,0.000262138084508479,1713350769.75377
-0.000728332262951881,0.00023958804376889,1713350769.80501
-0.000689146225340664,0.000182804287760519,1713350769.80634
-0.000654119125101715,0.000210234546102583,1713350769.81285
-0.000559399370104075,0.000208623838261701,1713350769.81405
-0.000446697318693623,0.000198070032638498,1713350769.86902
-0.000431407534051687,0.000221389360376634,1713350769.87039
-0.000445879937615246,0.000191603132407181,1713350769.89248
-0.000469319493276998,0.000187347948667593,1713350769.89407
-0.00047150717000477,0.000209801815799437,1713350769.98085
-0.000463645905256271,0.000203022384084761,1713350769.98246
-0.000465857650851831,0.000193790823686868,1713350770.00926
-0.000390995381167158,0.000223745330004022,1713350770.01099
-0.00041611774940975,0.000210210506338626,1713350770.03281
-0.000438812043284997,0.000213287697988562,1713350770.03383
-0.000410131673561409,0.000271970668109134,1713350770.06482
-0.000346688670106232,0.000208527664653957,1713350770.06643
-0.000358781049726531,0.000207421806408092,1713350770.0887
-0.000366401916835457,0.000216557207750157,1713350770.08959
-0.000352169910911471,0.000210907688597217,1713350770.16526
-0.000403496465878561,0.000202493494725786,1713350770.16665
-0.000344044208759442,0.000207109274924733,1713350770.20883
-0.000381884019589052,0.000199608621187508,1713350770.21055
-0.000336519529810175,0.000199464382603765,1713350770.23285
-0.000315676355967298,0.000198070032638498,1713350770.23435
-0.000323802058119327,0.000204056123038754,1713350770.31669
-0.000331326766172424,0.000200666414457373,1713350770.34108
-0.000266513467067853,0.000204008043510839,1713350770.36892
-0.000237905216636136,0.000202974304556847,1713350770.36987
-0.000212326078326441,0.000210955768125132,1713350770.39698
-0.000222447139094584,0.000200738533749245,1713350770.39838
-0.000167586622410454,0.000194391832337715,1713350770.40893
-0.000194632229977287,0.000201339542400092,1713350770.41014
-0.000145373167470098,0.000204200376174413,1713350770.41711
-0.000158066570293158,0.000206099575734697,1713350770.41861
-0.000194055261090398,0.00020020964439027,1713350770.45717
-0.000212518396438099,0.000190353021025658,1713350770.45879
-0.000104816768725868,0.000198887413716875,1713350770.51282
-0.000116091781819705,0.000199921152670868,1713350770.51383
-0.000124385769595392,0.00019677184172906,1713350770.55675
-8.28196716611274E-05,0.000192348379641771,1713350770.55823
-5.82021530135535E-05,0.000191122322576121,1713350770.58121
-6.87078718328848E-05,0.000198142151930369,1713350770.58242
-2.04825428227196E-05,0.000195521730347537,1713350770.60519
-2.02421379071893E-05,0.000193309999303892,1713350770.6067
-5.01485737913754E-05,0.000199223984964192,1713350770.67306
-6.63518994770129E-06,0.000204801384825259,1713350770.67485
-1.4183920029609E-05,0.000169990686117671,1713350770.69736
4.32970191468485E-05,0.000166721161804162,1713350770.69896
6.93088877596892E-05,0.000189896250958554,1713350770.74077
9.03683976503089E-05,0.000152513210196048,1713350770.74202
0.000116356226499192,0.000176962435944006,1713350770.79716
0.000124938698718324,0.00017251493409276,1713350770.79859
0.000108735373942181,0.000148306105984375,1713350770.84523
9.51765105128288E-05,6.66884661768563E-05,1713350770.84677
7.91174243204296E-05,0.000132198940264061,1713350770.89332
4.61818817711901E-05,0.000180063667357899,1713350770.89485
-3.52674760506488E-05,0.000115490765892901,1713350770.90075
-0.000208167068194598,0.000205402393476106,1713350770.90211
-0.000253002683166414,0.000217470747884363,1713350770.95321
-0.000387004663934931,0.000145276993862353,1713350770.95492
-0.000471531209768727,0.000142464254167862,1713350771.00559
-0.000503264716826379,0.000108374770206865,1713350771.00695
-0.000534685736056417,6.62557358737104E-05,1713350771.03263
-0.000553437334019691,4.53885440947488E-05,1713350771.03403
-0.000556490500457585,4.6830977225909E-05,1713350771.05326
-0.000612601113971323,4.46913691121154E-05,1713350771.05485
-0.0006658990168944,5.41873851034325E-05,1713350771.10519
-0.000679409771692008,8.27956318971701E-05,1713350771.1066
-0.000733380788005888,0.000110322049295064,1713350771.181
-0.00066616345429793,0.000133905821712688,1713350771.18275
-0.000695949653163552,0.000206051496206783,1713350771.20525
-0.000594570708926767,0.000180472357897088,1713350771.20683
-0.000732106680516154,0.000284327514236793,1713350771.23014
-0.000716913025826216,0.000205666845431551,1713350771.2311
-0.000793722574599087,0.000216869739233516,1713350771.26135
-0.000768600206356496,0.000163307413458824,1713350771.26269
-0.000769032922107726,0.000207638164283708,1713350771.31312
-0.00066157168475911,0.000149436018546112,1713350771.31472
-0.000729534309357405,0.000257017440162599,1713350771.34127
-0.000510837475303561,0.000206436146982014,1713350771.34217
-0.00037863856414333,0.000141815165989101,1713350771.41702
-0.000469632010208443,0.000144700024975464,1713350771.4186
-0.000591084826737642,9.637853509048E-05,1713350771.44496
-0.000685684382915497,0.000131020962726325,1713350771.44689
-0.00059216667432338,0.000138858173158951,1713350771.52124
-0.000702801218722016,0.000142512333695777,1713350771.52294
-0.000642892206087709,0.00021939400176052,1713350771.56583
-0.000639310164842755,0.000173476553754881,1713350771.56778
-0.000594498589634895,0.000185905519174412,1713350771.61317
-0.000578415463678539,0.000146791557199322,1713350771.61481
-0.000565217225812376,0.00017282746557612,1713350771.68507
-0.000519323803018779,0.000138858173158951,1713350771.68661
-0.000522689486388117,0.000139411102281883,1713350771.73358
-0.000514010840561241,0.000152368957060389,1713350771.73498
-0.000500379886943847,0.000153474829858169,1713350771.74587
-0.000452971900813282,0.00016775491531007,1713350771.74659
-0.000497783476021141,0.000144387508044019,1713350771.78867
-0.000444677920313552,0.000178164467797615,1713350771.78975
-0.000428065919550136,0.000153138258610852,1713350771.82212
-0.000430157437222078,0.000168764614500105,1713350771.82291
-0.000415564834838733,0.000162658310728148,1713350771.83305
-0.000421262433519587,0.000151912186993286,1713350771.83461
-0.000386908504879102,0.000156431808136404,1713350771.85342
-0.000355463474988937,0.000134001980768517,1713350771.85497
-0.000318537204293534,0.000144195175380446,1713350771.9009
-0.000362387130735442,0.000137223425554112,1713350771.90247
-0.000337072444381192,0.000140709293191321,1713350771.9251
-0.000339620746672153,0.000139242823934183,1713350771.92652
-0.000345005828421563,0.000142127682920545,1713350771.95711
-0.000309834518702701,0.00015020530554466,1713350771.9584
-0.000304978340864182,0.000143858604133129,1713350771.97674
-0.000288558629108593,0.000140877586090937,1713350771.97774
-0.000208431505598128,0.000147921455209143,1713350772.02891
-0.000203863804927096,0.000149844709085301,1713350772.03015
-0.000183333177119493,0.000146142454468645,1713350772.04885
-0.000145421246998012,0.000150878448039293,1713350772.0505
-0.000109288310341071,0.000159316681674682,1713350772.11265
-0.000108446889498737,0.000147416605614126,1713350772.11431
-0.000128352461615577,0.00014248829393182,1713350772.13688
-5.63991125090979E-05,0.000142680626595393,1713350772.13862
-0.000106475563370623,0.000146166494232602,1713350772.18099
-5.50528420717455E-06,0.000157056871103123,1713350772.18264
-5.25526265846565E-05,0.000155374029418454,1713350772.21712
-4.77685571240727E-05,0.000144315374200232,1713350772.21868
7.45256829759455E-06,0.000159605158842169,1713350772.26457
-1.63235290528974E-05,0.000158523340360262,1713350772.26607
2.41847865254385E-05,0.000165350851602852,1713350772.28906
2.06508266273886E-05,0.000155518268002197,1713350772.29006
3.12767479044851E-05,0.000146503065479919,1713350772.34093
0.000173692926182412,0.000146262667840347,1713350772.34242
7.60162001824938E-05,0.000135324211441912,1713350772.38876
8.20503701106645E-05,0.00012599649198819,1713350772.39032
8.73152530402876E-05,0.000134578964207321,1713350772.42918
7.56315494072623E-05,0.000130852669826709,1713350772.43061
6.0437923821155E-05,9.95999726001173E-05,1713350772.45326
4.07727602578234E-05,0.000119409378385171,1713350772.48135
1.09865277408971E-05,0.000131261360365897,1713350772.50936
-2.25981111725559E-05,0.000189126949408092,1713350772.5109
-9.37340737436898E-05,0.000149964907905087,1713350772.52518
-0.0001842467172537,5.95243836869486E-05,1713350772.52656
-0.000284231326077133,0.000194199499674141,1713350772.56962
-0.000347217574017122,0.000175231514731422,1713350772.57097
-0.000417391915107146,0.000144844278111123,1713350772.62081
-0.0004312873352319,0.000145757818245329,1713350772.62231
-0.000445302983280271,0.000128929430502467,1713350772.64857
-0.000458356982562691,0.000119241092761513,1713350772.65027
-0.000473454449092969,0.000109769120172132,1713350772.705
-0.00050158187514171,0.000108519008790609,1713350772.70686
-0.000546730007044971,0.000120587363198865,1713350772.76861
-0.000562933331821114,0.000118832402222324,1713350772.76966
-0.000624212669208646,0.000117774616228417,1713350772.80508
-0.00075850315624848,0.000151046726386994,1713350772.8064
-0.00071563886012882,0.000210426878766157,1713350772.83314
-0.000679842487443239,0.000222447139094584,1713350772.83465
-0.00074871868127957,0.000225404131924734,1713350772.9137
-0.000742035394068807,0.000299617298878729,1713350772.91592
-0.000777927925810218,0.000284784269751981,1713350772.95713
-0.000792280130553991,0.000273389043286443,1713350772.95879
-0.000798891298472881,0.000299857696518302,1713350772.98147
-0.00078328896779567,0.000221725931623951,1713350772.9825
-0.000774922838900238,0.00034476543078199,1713350773.0487
-0.000717802555300295,0.00031125292298384,1713350773.04971
-0.000682366779074073,0.000288198032649234,1713350773.07383
-0.000688184576574713,0.000279303028946742,1713350773.10586
-0.000589810661040247,0.000251512159593403,1713350773.153
-0.000624789681751281,0.000177731737494469,1713350773.15458
-0.000672918860800564,0.000246199197135866,1713350773.18906
-0.000680587778333575,0.000243843227508478,1713350773.19066
-0.000626833119895309,0.000261296663666144,1713350773.22191
-0.00077905785292387,0.000233097103773616,1713350773.22285
-0.000755113433115184,0.00026168129988946,1713350773.24163
-0.000740015995688736,0.000204320574994199,1713350773.24304
-0.000763263204135001,0.000195064960280433,1713350773.2571
-0.000671668734867126,0.000252401659963652,1713350773.25858
-0.000605076435022056,0.000314883043756708,1713350773.26954
-0.000542811409104615,0.000286851747659966,1713350773.27098
-0.000570626347325742,0.000308151677018031,1713350773.29747
-0.000560793734621257,0.000293919671094045,1713350773.2986
-0.000608297879807651,0.000282981229247525,1713350773.34479
-0.000653758528642356,0.000261296663666144,1713350773.34639
-0.00062726583564654,0.000241655536228791,1713350773.36099
-0.000588800990954042,0.000279303028946742,1713350773.36233
-0.000531512370798737,0.000282668712316081,1713350773.41719
-0.00056040909839794,0.000281947490293533,1713350773.4183
-0.000583415909204632,0.000287212373223156,1713350773.44475
-0.000541320885531604,0.00027685088571161,1713350773.4463
-0.000509082514327019,0.000282187887933105,1713350773.49664
-0.000494465872179717,0.000273605430265889,1713350773.49781
-0.000507183314766735,0.000244708673562855,1713350773.53285
-0.000466386525658891,0.000281490705674514,1713350773.53421
-0.000470785947982222,0.000283413974102587,1713350773.5732
-0.000484633317682892,0.000267955882009119,1713350773.5748
-0.000430253596277908,0.000284135167021304,1713350773.60542
-0.000460063864011318,0.000267787603661418,1713350773.60666
-0.000438186980318278,0.000280192529316992,1713350773.66121
-0.000409554690122604,0.000269302166998386,1713350773.6633
-0.000422632758272812,0.000277379789622501,1713350773.69723
-0.000435470399679616,0.000271682161837816,1713350773.69884
-0.000393952388549224,0.00031125292298384,1713350773.73309
-0.000372412061551586,0.000271922588581219,1713350773.73469
-0.000359598430804908,0.000292068551061675,1713350773.78963
-0.000257305917330086,0.000316253339406103,1713350773.79106
-0.000314450298901647,0.000289760675514117,1713350773.81769
-0.000282211927697062,0.000287500850390643,1713350773.81877
-0.000267835683189332,0.000276658567599952,1713350773.87349
-0.000240597757510841,0.000302886794088408,1713350773.875
-0.000223865528823808,0.000290938653051853,1713350773.89736
-0.000182804287760519,0.000310050876578316,1713350773.8986
-0.00014006020501256,0.000302982953144237,1713350773.97382
-0.000154845140059479,0.000295193836791441,1713350773.9753
-0.000149027328006923,0.00034185653203167,1713350773.99692
-0.000152392996824346,0.00034529430558905,1713350773.99851
-0.000143690325785428,0.000333057687385008,1713350774.02185
-0.000122029792692047,0.000325701286783442,1713350774.02281
-0.000123063538921997,0.000288871175143868,1713350774.06919
-0.000109480635728687,0.000292477256152779,1713350774.07052
-9.60179313551635E-05,0.000250117795076221,1713350774.14556
-0.000116764917038381,0.000267643365077674,1713350774.14694
-0.000172106243553571,0.000293030170723796,1713350774.20502
-0.00020078661327716,0.000259421503869817,1713350774.20698
-0.000257738662185147,0.000328946742229164,1713350774.22952
-0.000307791080558673,0.000258267566096038,1713350774.23065
-0.000349693727912381,0.00023112578492146,1713350774.24899
-0.000396620889659971,0.000217158230952919,1713350774.25028
-0.000429171777796,0.000205089876544662,1713350774.27308
-0.000462708325358108,0.000198070032638498,1713350774.27455
-0.000484585238154978,0.00018345337593928,1713350774.29673
-0.000498985522426665,0.000181433977559209,1713350774.29816
-0.000558726256713271,0.000202397335669957,1713350774.34912
-0.000545407820027322,0.000262090004980564,1713350774.35044
-0.000709845102392137,0.000284688110696152,1713350774.37322
-0.000765018165111542,0.000289664487354457,1713350774.37476
-0.000781582086347044,0.000340510247042403,1713350774.41728
-0.000829518947284669,0.00026733084814623,1713350774.41883
-0.000876902835443616,0.000397462310502306,1713350774.44545
-0.000853896024636924,0.000448332080850378,1713350774.44672
-0.000810574973002076,0.000345847249263898,1713350774.50504
-0.000799636531155556,0.000494345673359931,1713350774.50652
-0.000842260429635644,0.000457780028227717,1713350774.53344
-0.000834663631394506,0.000366089399904013,1713350774.53482
-0.000796968059148639,0.000531127734575421,1713350774.58543
-0.000701430893968791,0.000294424535240978,1713350774.58671
-0.000761652481742203,0.000275961385341361,1713350774.62095
-0.00087747978977859,0.000210066267754883,1713350774.62259
-0.000973425630945712,0.000194439911865629,1713350774.66894
-0.000934407813474536,0.000333418283844367,1713350774.67043
-0.000848919677082449,0.000278245250228792,1713350774.72192
-0.000885701680090278,0.000294929370284081,1713350774.72264
-0.000902505998965353,0.000304737914120778,1713350774.7447
-0.000971165834926069,0.000269157928414643,1713350774.74584
-0.000903299369383603,0.000245958799496293,1713350774.76891
-0.000872599601279944,0.000274639169219881,1713350774.77028
-0.000824398302938789,0.000288534589344636,1713350774.8292
-0.000818340107798576,0.000316902442136779,1713350774.83053
-0.000657677126582712,0.0003906347847078,1713350774.85298
-0.000576179707422853,0.000393135007470846,1713350774.85449
-0.000600749102886766,0.000340245809638873,1713350774.90513
-0.000603754189796746,0.000268556905211881,1713350774.90657
-0.00063096807571128,0.000404626363888383,1713350774.92937
-0.000645897292997688,0.000312551099341363,1713350774.93062
-0.000600388506427407,0.000260383123531938,1713350774.96129
-0.000602912798058242,0.000301684776786715,1713350774.96284
-0.00056764530017972,0.000453260407084599,1713350775.05334
-0.000591854099184275,0.000467444304376841,1713350775.05478
-0.000525814772117883,0.000295698671834543,1713350775.06537
-0.000633925083093345,0.000280336767900735,1713350775.06679
-0.00061288959113881,0.000339764985255897,1713350775.0933
-0.000620390230324119,0.000300025974866003,1713350775.09472
-0.000610389397479594,0.000300458719721064,1713350775.13717
-0.000594210112467408,0.000418016948970035,1713350775.13836
-0.000570361909922212,0.00027314864564687,1713350775.16526
-0.000603225314989686,0.000313680997351184,1713350775.16695
-0.00058783934218809,0.000364815234206617,1713350775.20904
-0.000576660502701998,0.000314714736305177,1713350775.21059
-0.000584545778110623,0.000325821485603228,1713350775.28099
-0.000560889893677086,0.000335798307787627,1713350775.28259
-0.000557908904738724,0.000280601205304265,1713350775.29704
-0.00050184631254524,0.000323345302604139,1713350775.29855
-0.000476868211990222,0.000312863616272807,1713350775.33679
-0.000445158744696528,0.000312599178869277,1713350775.33851
-0.000453909480711445,0.000289616407826543,1713350775.38465
-0.000410203792853281,0.000304209039313719,1713350775.38583
-0.000393519643694162,0.000309618160827085,1713350775.41315
-0.000367243337677792,0.000315964862238616,1713350775.41478
-0.000326013803714886,0.000305627414491028,1713350775.4608
-0.000295386154903099,0.000277043203823268,1713350775.46229
-0.0002691819681786,0.000299160514259711,1713350775.5098
-0.000236054096603766,0.000338466808898374,1713350775.51073
-0.000219249748624861,0.000304906192468479,1713350775.53356
-0.000196218912606128,0.000298222934361547,1713350775.53472
-0.000173692926182412,0.00029819889459759,1713350775.58476
-0.000162898722919635,0.000302766595268622,1713350775.58634
-0.000129842970636673,0.000317431316943839,1713350775.61727
-0.00011363964586053,0.00032060468220152,1713350775.61871
-7.6256605098024E-05,0.000318080419674516,1713350775.67751
-3.76715324819088E-05,0.00033726476249285,1713350775.67916
-7.73865103838034E-05,0.000327263900544494,1713350775.69285
-5.82021530135535E-05,0.000349405250744894,1713350775.6942
-5.82983157073613E-05,0.000341207429300994,1713350775.74496
-7.89972255006432E-05,0.000318729522405192,1713350775.74648
-5.40671826456673E-05,0.000327504327287897,1713350775.78116
-4.99802881677169E-05,0.000306252477457747,1713350775.82882
-4.23113560827915E-05,0.000239828455960378,1713350775.85346
-3.24306929542217E-05,0.000338466808898374,1713350775.8548
-7.15446585672907E-05,0.000296323734801263,1713350775.88092
-0.000126453262055293,0.000238073494983837,1713350775.88235
-0.000166552883456461,0.000330004520947114,1713350775.92939
-0.00025692128110677,0.000290361669613048,1713350775.93071
-0.000361930375220254,0.000292236829409376,1713350775.95697
-0.000425493577495217,0.000272595701972023,1713350775.95846
-0.000469006947241724,0.000277355749858543,1713350775.98877
-0.00047662781435065,0.000252930563874543,1713350775.9902
-0.000486075732624158,0.000229851633775979,1713350776.01306
-0.00049461011076346,0.00022679848189,1713350776.0147
-0.000520501809660345,0.000204296535230242,1713350776.07312
-0.000509034434799105,0.000254228740232065,1713350776.0744
-0.000553172896616161,0.000262546760495752,1713350776.09694
-0.000626568682491779,0.000209176767384633,1713350776.09818
-0.000709340267349035,0.00030560337472707,1713350776.15304
-0.000665802857838571,0.000320965278660879,1713350776.15476
-0.000761388044338673,0.00033841872937046,1713350776.2252
-0.000766460609156638,0.000352698814822361,1713350776.22661
-0.000862911227159202,0.000374094874132425,1713350776.32463
-0.000759897520765662,0.000514948449563235,1713350776.32603
-0.0007673260406591,0.000384312123060226,1713350776.34884
-0.000761916919145733,0.000434172194218263,1713350776.35021
-0.000846515584271401,0.000461169722257182,1713350776.37704
-0.000792953243944794,0.000343755731591955,1713350776.37849
-0.000742588308639824,0.000294015830149874,1713350776.42947
-0.000646281929221004,0.000305819732602686,1713350776.48163
-0.000525357958395034,0.00030411288025789,1713350776.50494
-0.000708619016222656,0.000248795578954741,1713350776.50607
-0.000754175882320851,0.000379431876353919,1713350776.53329
-0.000823532813228667,0.000327576446579769,1713350776.53477
-0.000733741384465247,0.000322215404594317,1713350776.58096
-0.000691790657583624,0.000311950076138601,1713350776.58261
-0.000692415691446513,0.000294953410048038,1713350776.62644
-0.000604884116910398,0.00030781512032263,1713350776.62701
-0.00068989145802334,0.00032933140755631,1713350776.64913
-0.000634357798844576,0.000319835380651057,1713350776.65062
-0.000616880308371037,0.000307310256175697,1713350776.701
-0.000494369713123888,0.000295362115139142,1713350776.70217
-0.000478190428111702,0.000308031478198245,1713350776.72466
-0.000508265162352473,0.000280769512755796,1713350776.72623
-0.000473141932161525,0.000338466808898374,1713350776.78053
-0.000547090661711991,0.000316205259878188,1713350776.78173
-0.000525934970937669,0.000308848859276623,1713350776.80469
-0.00045078422408551,0.000325989763950929,1713350776.80586
-0.000539926579222083,0.000339861144311726,1713350776.83752
-0.00051288097165525,0.000317311118124053,1713350776.83854
-0.000480113696539775,0.000344549072906375,1713350776.85697
-0.000536993611603975,0.000335966586135328,1713350776.85866
-0.00048667675582692,0.000306685193208978,1713350776.94878
-0.000514443556312472,0.000335822347551584,1713350776.95029
-0.00050062028458342,0.000333081727148965,1713350776.97693
-0.000498889363370836,0.00036178613663651,1713350776.97813
-0.000486628676299006,0.000339572667144239,1713350777.00463
-0.000542498892173171,0.000354766292730346,1713350777.02924
-0.000492157996632159,0.000341135310009122,1713350777.09319
-0.000483912095660344,0.000307093898300081,1713350777.09517
-0.000446985824964941,0.000403352227294818,1713350777.13738
-0.000453933520475403,0.000337841745931655,1713350777.13893
-0.000432489381637424,0.000352290109731257,1713350777.16089
-0.000454774941317737,0.00034476543078199,1713350777.16241
-0.00039142812602222,0.000347698369296268,1713350777.1812
-0.000391163659514859,0.000360127334715798,1713350777.18264
-0.000341351667884737,0.000410444190492854,1713350777.24483
-0.000364406558219343,0.00034644827246666,1713350777.24646
-0.000389793363865465,0.000354093150235713,1713350777.27276
-0.000381138757802546,0.000367219297913834,1713350777.27413
-0.000317936181090772,0.000371474481653422,1713350777.30549
-0.000361137033905834,0.000323657819535583,1713350777.30694
-0.000328850583173335,0.000304713874356821,1713350777.32956
-0.000301829015370458,0.000327768764691427,1713350777.3305
-0.000277572107734159,0.000323681859299541,1713350777.35275
-0.000244901020778343,0.000322576001053676,1713350777.35436
-0.000202806026209146,0.000301853055134416,1713350777.40879
-0.000164557510288432,0.000304353277897462,1713350777.41013
-0.000152224718476646,0.000330990209477022,1713350777.52078
-8.39976564748213E-05,0.000490667473059148,1713350777.52189
-9.17387151275761E-05,0.000342962390277535,1713350777.56935
-0.000126381128211506,0.000322359643178061,1713350777.57067
-9.39263991313055E-05,0.000327263900544494,1713350777.59255
-5.01485737913754E-05,0.000336399330990389,1713350777.59393
-5.30574798176531E-05,0.000327816844219342,1713350777.64484
-4.11574110330548E-05,0.000332985568093136,1713350777.64643
-6.82511017657816E-05,0.000324643478961661,1713350777.67276
-7.58479145588353E-05,0.000334740529069677,1713350777.67411
-1.20443119158153E-05,0.000338106183335185,1713350777.72138
3.93303271266632E-05,0.000342866231221706,1713350777.72275
5.87550857744645E-05,0.000329090980812907,1713350777.74504
0.0000769297403167002,0.000339284189976752,1713350777.74641
7.60642797104083E-05,0.000334620330249891,1713350777.76508
5.77694263483863E-05,0.000313512719003484,1713350777.76667
7.74586296756752E-05,0.000320652761729434,1713350777.79261
-1.1106731108157E-05,0.000243410497205332,1713350777.79412
-7.31553736841306E-05,0.000354670133674517,1713350777.81712
-0.000172659172676504,0.000335726188495755,1713350777.81864
-0.000273485202342272,0.000330773822497576,1713350777.86932
-0.000319883460178971,0.00029899223591201,1713350777.87071
-0.000349164853105322,0.000273725629085675,1713350777.89315
-0.0004129444132559,0.000250093755312264,1713350777.89466
-0.000437585957115516,0.000251079443842173,1713350777.99721
-0.00046727602602914,0.00022768798226025,1713350777.99871
-0.000495259242597967,0.000241679575992748,1713350778.0166
-0.000532738456968218,0.000286058406345546,1713350778.01824
-0.000596950703766197,0.000243194139329717,1713350778.04489
-0.000607264111749828,0.000291900272713974,1713350778.04642
-0.000667942455038428,0.000317190919304267,1713350778.08913
-0.000746434845495969,0.000295842910418287,1713350778.09073
-0.000715061905793846,0.000277596147498116,1713350778.13705
-0.000741434399969876,0.000341952691087499,1713350778.13898
-0.000740881427191198,0.000252017023740336,1713350778.22878
-0.00073645799420774,0.000460881245089695,1713350778.23018
-0.00093587429728359,0.000380946439690888,1713350778.26084
-0.000938398530706763,0.000526199408341199,1713350778.26233
-0.000848534982651472,0.000381980178644881,1713350778.30864
-0.000758599315304309,0.000610341317951679,1713350778.31015
-0.000797569053247571,0.00038736526039429,1713350778.33278
-0.000855242309626192,0.000366522115655243,1713350778.33447
-0.000775163294747472,0.00021114808623679,1713350778.36103
-0.000682703335769475,0.000262594840023667,1713350778.36262
-0.000699026859365404,0.000293006130959839,1713350778.38925
-0.000764393131248653,0.000277740386081859,1713350778.39128
-0.000870844640303403,0.000223745330004022,1713350778.40913
-0.000842332548927516,0.000270720542175695,1713350778.41067
-0.000803410890512168,0.000290025112917647,1713350778.43303
-0.000819998851511627,0.000292837852612138,1713350778.43418
-0.000782639894168824,0.000316517776809633,1713350778.46112
-0.000733404827769846,0.000261464942013845,1713350778.46266
-0.000677029776852578,0.000253603677265346,1713350778.48514
-0.000628996756859124,0.000285625690594316,1713350778.48674
-0.000595580437220633,0.000295915029710159,1713350778.50914
-0.000660562014672905,0.000366714433766901,1713350778.51058
-0.000630343041848391,0.000307262176647782,1713350778.53297
-0.00062700139824301,0.000243554735789075,1713350778.5344
-0.000568751187529415,0.000319090118864551,1713350778.56083
-0.000520934525411576,0.000285505491774529,1713350778.56204
-0.000482349452795461,0.000318849721224979,1713350778.58537
-0.000556153943762183,0.000293919671094045,1713350778.58702
-0.000534589577000588,0.000329956441419199,1713350778.63716
-0.000503264716826379,0.000307670881738886,1713350778.63851
-0.000548484968021512,0.000294881290756166,1713350778.65685
-0.000526295567397028,0.000269109848886728,1713350778.65814
-0.000513433886226267,0.000275841186521575,1713350778.71273
-0.00046859827125445,0.000283389934338629,1713350778.71439
-0.000514756131451577,0.000286659429548308,1713350778.74875
-0.000463718024548143,0.000326710985973477,1713350778.75014
-0.000498384470120072,0.000295001489575952,1713350778.77289
-0.000487566256197169,0.000303127191727981,1713350778.7745
-0.000423450110247359,0.000304184999549761,1713350778.80123
-0.00044893310405314,0.000280264648608863,1713350778.80263
-0.000444293284090236,0.000269518524874002,1713350778.86538
-0.000425902253482491,0.000279807893093675,1713350778.86656
-0.000390779023291543,0.000274855527095497,1713350778.9448
-0.000398351781768724,0.000286779628368095,1713350778.94652
-0.000406020728405565,0.000275769067229703,1713350778.99721
-0.000375561357941478,0.000270095508312806,1713350778.99812
-0.000358011777279899,0.000248603260843083,1713350779.04531
-0.000285866088233888,0.00026495082420297,1713350779.04676
-0.00029608333716169,0.000265551847405732,1713350779.08516
-0.00026680194423534,0.000262378482148051,1713350779.08669
-0.000193309999303892,0.000245766481384635,1713350779.10482
-0.000176746078068391,0.000255430757533759,1713350779.10643
-0.000172322615981102,0.000241799774812534,1713350779.13732
-0.000141286276630126,0.00026009464636445,1713350779.13884
-0.000112197216367349,0.00025692128110677,1713350779.1613
-7.76990345912054E-05,0.000238097534747794,1713350779.18449
-4.76243149023503E-05,0.000241318964981474,1713350779.23295
-1.14192580440431E-05,0.000270888849627227,1713350779.23449
9.64025730354479E-06,0.000261368782958016,1713350779.26122
3.3224030630663E-05,0.000253699836321175,1713350779.263
6.59672514302656E-05,0.000258123298408464,1713350779.32106
7.6569129305426E-05,0.00023636661353521,1713350779.32302
8.45986724016257E-05,0.000237640764680691,1713350779.35674
8.51275617606007E-05,0.00023725611390546,1713350779.35793
3.04593686450971E-05,0.000202156923478469,1713350779.3808
-2.78149072983069E-05,0.00018350147001911,1713350779.38241
-9.22195249586366E-05,0.000195690023247153,1713350779.41275
-0.000184847740456462,0.000219321867916733,1713350779.41397
-0.000256464525591582,0.000190737671800889,1713350779.43677
-0.000336279103066772,0.000185809360118583,1713350779.43833
-0.000384312123060226,0.000174438173417002,1713350779.46069
-0.000400539487600327,0.000158210808876902,1713350779.46239
-0.00041796886944212,0.000145709724165499,1713350779.48915
-0.000439004361396655,0.000144507706863806,1713350779.4906
-0.000461241870652884,0.000128400541143492,1713350779.50927
-0.00047097826609388,0.000120154632895719,1713350779.5115
-0.000474704575026408,0.000130612272187136,1713350779.56521
-0.000531776808202267,0.000138810093631037,1713350779.56679
-0.000554302823729813,0.000216052358155139,1713350779.61365
-0.000587695103604347,0.000241919988184236,1713350779.6151
-0.000528891920112073,0.000383542821509764,1713350779.66133
-0.000703185854945332,0.000291948352241889,1713350779.66251
-0.000747083919122815,0.0002955544332508,1713350779.68474
-0.000735376146622002,0.000443932658527046,1713350779.71309
-0.000821970228571445,0.000276273931376636,1713350779.73285
-0.000770379207096994,0.000384865037631243,1713350779.73437
-0.00082156149437651,0.000317671743687242,1713350779.75729
-0.000776076805777848,0.000347602210240439,1713350779.75831
-0.000731241190806031,0.000331110408296809,1713350779.78987
-0.000722802942618728,0.000195064960280433,1713350779.79134
-0.000684217899106443,0.000209585457923822,1713350779.81324
-0.000658326200209558,0.000203719566343352,1713350779.81435
-0.000726409023627639,0.000239083194173872,1713350779.86127
-0.000734943430870771,0.000174005443113856,1713350779.86257
-0.000749752391129732,0.000260190805420279,1713350779.91727
-0.000651065958663821,0.000329307367792353,1713350779.91869
-0.000662124657537788,0.000264205562416464,1713350779.97715
-0.000737179187126458,0.000286611350020394,1713350779.97852
-0.00068159744841978,0.000240213106735609,1713350779.99726
-0.00071510998532176,0.000125539721921086,1713350779.99858
-0.000647844572085887,0.00030243003857322,1713350780.0647
-0.000634766474831849,0.000344645231962204,1713350780.06607
-0.000620871083810926,0.000410516309784725,1713350780.085
-0.000580987776629627,0.000315532117383555,1713350780.08665
-0.000611134630162269,0.000292164710117504,1713350780.12075
-0.000606470799539238,0.000335918506607413,1713350780.122
-0.000642387371044606,0.000313801196170971,1713350780.1491
-0.000619813275989145,0.000281033950159326,1713350780.15133
-0.00061817851383239,0.000276129663689062,1713350780.17323
-0.000611807801760733,0.000355343276169151,1713350780.17518
-0.000605629349593073,0.000296804530080408,1713350780.213
-0.000592984026297927,0.000325220462400466,1713350780.237
-0.000604114786256105,0.000284519832348451,1713350780.26899
-0.000597816193476319,0.000300362531561404,1713350780.27059
-0.000605148554313928,0.000287092174403369,1713350780.32468
-0.000592334952671081,0.000363444938557222,1713350780.32628
-0.000589017348829657,0.000301540538202971,1713350780.38121
-0.000581973465159535,0.000324811786413193,1713350780.38248
-0.000576299906242639,0.000290481868432835,1713350780.46131
-0.00060010002925992,0.00029158775578253,1713350780.46293
-0.000567813578527421,0.000315387878799811,1713350780.50943
-0.000537522486411035,0.000344837550073862,1713350780.51061
-0.000548220530617982,0.000277283630566671,1713350780.53296
-0.000511222169734538,0.000331759481923655,1713350780.53459
-0.000467035628389567,0.000313560798531398,1713350780.57295
-0.000477012450573966,0.000356208736775443,1713350780.57464
-0.000453380605904385,0.000326542707625777,1713350780.60093
-0.000469800288556144,0.00030887289904058,1713350780.60241
-0.000439749623183161,0.000321566301863641,1713350780.63279
-0.000428354396717623,0.000293246528599411,1713350780.63371
-0.000400106742745265,0.000330869981553406,1713350780.65705
-0.000350487069226801,0.000317046680720523,1713350780.65872
-0.000299665378406644,0.000324138643918559,1713350780.68068
-0.000313031923724338,0.000330557464621961,1713350780.68194
-0.00028778932755813,0.000351520808180794,1713350780.70074
-0.000251416000537574,0.000352770934114233,1713350780.70228
-0.000240573717746884,0.000333322124788538,1713350780.72962
-0.000214201238122769,0.000330052600475028,1713350780.73108
-0.000229827594012022,0.000325725326547399,1713350780.85663
-0.000180255985469557,0.000316710124025121,1713350780.85861
-0.000168428043252788,0.000322047126246616,1713350780.86466
-0.000148113787872717,0.000322095205774531,1713350780.86626
-0.00012462618178688,0.000330966140609235,1713350780.92082
-0.000113976217107847,0.000332456664182246,1713350780.92214
-0.000111403875052929,0.000346568471286446,1713350780.94099
-0.000122053839731961,0.000353756593540311,1713350780.94258
-9.43350896704942E-05,0.000332673022057861,1713350780.9849
-4.10131651733536E-05,0.000340894912369549,1713350780.9862
-2.23577058022784E-06,0.000350607268046588,1713350781.01715
2.40405427121004E-07,0.000314642617013305,1713350781.01862
1.34386637000716E-05,0.000320123857818544,1713350781.04505
2.38722586800577E-05,0.000370464753359556,1713350781.04683
2.38963002630044E-05,0.000324811786413193,1713350781.06478
-4.75041124445852E-05,0.000297525752102956,1713350781.06591
-6.03177213633899E-05,0.000354309508111328,1713350781.0927
-0.000115082075353712,0.000340991071425378,1713350781.09417
-0.000195786182302982,0.00031680628308095,1713350781.14099
-0.000290818454232067,0.000304569635773078,1713350781.14253
-0.000353444076608866,0.000317190919304267,1713350781.16477
-0.000382677360903472,0.000283750530797988,1713350781.16605
-0.000393615802749991,0.00027747594867833,1713350781.22098
-0.000405780330765992,0.000268556905211881,1713350781.22277
-0.000415276328567416,0.000248627300607041,1713350781.26472
-0.000443355704192072,0.000249420641921461,1713350781.26616
-0.000460256182122976,0.000259541702689603,1713350781.29273
-0.000485114112962037,0.000297621911158785,1713350781.29415
-0.000489489466417581,0.000353948911651969,1713350781.36468
-0.000556466460693628,0.000382533122319728,1713350781.36573
-0.0005729342228733,0.000406717910664156,1713350781.39328
-0.000600340426899493,0.000470665749162436,1713350781.39461
-0.000715710979420692,0.000492807070259005,1713350781.41716
-0.000770475366152823,0.000481411872897297,1713350781.41893
-0.000817883294075727,0.000416718772612512,1713350781.46864
-0.000762253475841135,0.000660922611132264,1713350781.46996
-0.000838750507682562,0.000473935273475945,1713350781.52132
-0.000771749531850219,0.000621472077909857,1713350781.52261
-0.000823340495117009,0.000483623589389026,1713350781.5501
-0.00074016023427248,0.000581997504923493,1713350781.55062
-0.000582838896661997,0.000344693311490118,1713350781.56905
-0.00063714652787894,0.000377436517737806,1713350781.57069
-0.000705493788700551,0.000394024507841095,1713350781.61279
-0.000822499103378505,0.0003885192272719,1713350781.6142
-0.000834110658615828,0.000381835940061137,1713350781.65324
-0.00072208174970001,0.000420829717768356,1713350781.65478
-0.000617361161857843,0.00037625854020007,1713350781.70086
-0.000753286352846772,0.000427537015639246,1713350781.70227
-0.000688665371853858,0.000535959843546152,1713350781.72857
-0.000741843075957149,0.000415180169511586,1713350781.72994
-0.000716456270311028,0.000365800893632695,1713350781.76102
-0.000693401379976422,0.000410083594033495,1713350781.76235
-0.000659167650155723,0.000376859563402832,1713350781.8092
-0.000571708136703819,0.000414867652580142,1713350781.81088
-0.000602648302447051,0.000370536901755258,1713350781.85696
-0.000575242098420858,0.000409915286581963,1713350781.85861
-0.000533219252247363,0.000452154519734904,1713350781.88466
-0.000516727450303733,0.000386427680496126,1713350781.8859
-0.000473478488856927,0.00040791992796585,1713350781.93788
-0.000424291531089693,0.000468213605927303,1713350781.939
-0.000504394643940032,0.000424267491325736,1713350781.96469
-0.000521415320690721,0.000396043906221166,1713350781.96554
-0.000482517731143162,0.000440566975157708,1713350782.00485
-0.000460688926978037,0.000456241425126791,1713350782.00579
-0.000470064725959674,0.000428354396717623,1713350782.07022
-0.000479055888717994,0.000433907756814733,1713350782.0708
-0.000441408396000043,0.000434027955634519,1713350782.08984
-0.000446072284830734,0.000416887050960213,1713350782.09123
-0.000442009419202805,0.000409314292483032,1713350782.13667
-0.000455231725936756,0.000433907756814733,1713350782.13764
-0.000444052857346833,0.00043905244092457,1713350782.17309
-0.000422752957092598,0.000442297896370292,1713350782.17468
-0.000319450744427741,0.000461506308056414,1713350782.25256
-0.000405660131946206,0.000461842864751816,1713350782.25359
-0.000369863759260625,0.000434917456004769,1713350782.27315
-0.00031918627792038,0.000468814629130065,1713350782.27478
-0.000271970668109134,0.000470545550342649,1713350782.30096
-0.000292116630589589,0.000496509310323745,1713350782.30258
-0.000242496957071125,0.000520381610840559,1713350782.35689
-0.000254637416219339,0.000457948306575418,1713350782.3585
-0.000252569938311353,0.000466458644950762,1713350782.4086
-0.000220908550545573,0.00050158187514171,1713350782.40962
-0.000189703918294981,0.000445567420683801,1713350782.46104
-0.000221629758016206,0.000455712521215901,1713350782.49266
-0.000208647878025658,0.000455952947959304,1713350782.50865
-0.00017251493409276,0.000528555363416672,1713350782.51047
-0.000174197775777429,0.0004614582285285,1713350782.51668
-0.000164653683896177,0.000466963509097695,1713350782.51796
-0.00017145715537481,0.000485594937345013,1713350782.53695
-0.000171577354194596,0.000463862263131887,1713350782.5382
-0.000142007484100759,0.000488912512082607,1713350782.57328
-0.00016325933393091,0.000481844588648528,1713350782.57468
-0.000137752314913087,0.000468141486635432,1713350782.62101
-0.00013789655349683,0.000484537129523233,1713350782.62258
-0.00011106731108157,0.000481868628412485,1713350782.64943
-7.26505240891129E-05,0.00049497076543048,1713350782.65091
-7.78673202148639E-05,0.000492182036396116,1713350782.68498
-5.53894096810836E-05,0.000496653548907489,1713350782.6865
-5.20958565175533E-05,0.000513289647642523,1713350782.74075
-2.95458266919013E-05,0.000506365962792188,1713350782.74242
2.11556780413957E-05,0.00049850472714752,1713350782.76996
4.39941941294819E-05,0.000488575955387205,1713350782.77144
7.40448740543798E-05,0.000493143685162067,1713350782.84133
8.3973616710864E-05,0.000382581201847643,1713350782.84285
8.45986724016257E-05,0.000509683566633612,1713350782.89822
2.97862334264209E-05,0.00041664665332064,1713350782.89877
4.23353958467487E-05,0.000390730943763629,1713350782.91655
6.87559531797888E-06,0.000503457034938037,1713350782.91751
-2.30789210036164E-05,0.000475906592328101,1713350782.94098
-6.0437923821155E-05,0.000456722220405936,1713350782.94235
-8.38053310872056E-05,0.000449149461928755,1713350782.96579
-0.000109528715256602,0.000428955419920385,1713350782.98111
-0.000121068173029926,0.000421623029978946,1713350783.02942
-0.000134482790599577,0.000404434045776725,1713350783.03078
-0.000157705959281884,0.000398351781768724,1713350783.04963
-0.000173813125002198,0.000409867207054049,1713350783.05084
-0.000190689592272975,0.000410155713325366,1713350783.08859
-0.000238025415455922,0.000433787557994947,1713350783.09032
-0.000246872339630499,0.000421070115407929,1713350783.13257
-0.000368084758520126,0.000430253596277908,1713350783.13444
-0.000431575812399387,0.00047706053010188,1713350783.19295
-0.000478575093438849,0.000528242846485227,1713350783.19454
-0.000546850205864757,0.00056490465067327,1713350783.21702
-0.000542883528396487,0.000591493502724916,1713350783.21833
-0.000740448711439967,0.000499273999594152,1713350783.24572
-0.000697656534612179,0.000575410376768559,1713350783.24747
-0.000683039892464876,0.00061288959113881,1713350783.30098
-0.000688881729729474,0.000435205962276086,1713350783.30236
-0.00075965712312609,0.000564231537282467,1713350783.38051
-0.000726986036170274,0.000600917439442128,1713350783.38205
-0.000725591671653092,0.000482397532323375,1713350783.40459
-0.0005362483789213,0.000468934827949852,1713350783.40608
-0.000620534468907863,0.000480955088278279,1713350783.43683
-0.000861589040141553,0.000439196679508314,1713350783.43856
-0.000884499633684754,0.000432633620221168,1713350783.49256
-0.000803314731456339,0.000507447752170265,1713350783.4941
-0.000781389768235385,0.000569664698559791,1713350783.52081
-0.00077499495819211,0.00051711208652705,1713350783.5226
-0.000774922838900238,0.000509419129230082,1713350783.53764
-0.000787904777098447,0.000490739592351019,1713350783.64116
-0.000753767206333578,0.000474896893138066,1713350783.66925
-0.000678664539009333,0.000467324105557054,1713350783.67076
-0.000619693077169359,0.000551874691154808,1713350783.72911
-0.00055908685317263,0.000505428353790194,1713350783.73081
-0.000572958262637258,0.000533171172719449,1713350783.7411
-0.00055052840616554,0.000456626061350107,1713350783.74255
-0.00056817417498678,0.000472877465654165,1713350783.76122
-0.000561659224331379,0.000484008254716173,1713350783.76285
-0.000532618199940771,0.00056649133330211,1713350783.78945
-0.000455856788903475,0.000442081538494676,1713350783.79068
-0.000497519038617611,0.000504707160871476,1713350783.81713
-0.000399409589590505,0.000462828524177894,1713350783.81873
-0.000519011286087334,0.000434845336712897,1713350783.83739
-0.000496148713864386,0.000487373938085511,1713350783.83878
-0.000530767079908401,0.000456962647149339,1713350783.84513
-0.000491244427394122,0.000394240865716711,1713350783.84653
-0.000446000165538862,0.000456626061350107,1713350783.89293
-0.000471627368824557,0.00045924648293294,1713350783.89447
-0.000468478072434664,0.00044487023842521,1713350783.96466
-0.00044813976273872,0.000436768576037139,1713350783.96566
-0.000506221724208444,0.000441360316472128,1713350784.01355
-0.00046479984303005,0.000425277190515772,1713350784.01493
-0.000462588126538321,0.000441600743215531,1713350784.04052
-0.000437297479948029,0.000429652573075146,1713350784.04171
-0.000396212184568867,0.000439028401160613,1713350784.06489
-0.000439533236203715,0.000477877911180258,1713350784.06606
-0.000445086625404656,0.000472853425890207,1713350784.08489
-0.000408593070460483,0.000438571616541594,1713350784.11692
-0.000405756291002035,0.000419002608396113,1713350784.1184
-0.000385706458473578,0.000435566558735445,1713350784.11988
-0.00035887723788619,0.000578896258957684,1713350784.16899
-0.000352386268787086,0.000438331218902022,1713350784.1704
-0.000385153543902561,0.000405299506383017,1713350784.22902
-0.000328634225297719,0.000416526454500854,1713350784.23009
-0.000359838857548311,0.000413930072681978,1713350784.253
-0.000311060575768352,0.000440086179878563,1713350784.25459
-0.000346688670106232,0.000434027955634519,1713350784.33313
-0.00033498092670925,0.000419771909946576,1713350784.33459
-0.000314907083520666,0.000429267936851829,1713350784.36082
-0.000326903304085135,0.000407871848437935,1713350784.36198
-0.00030666115344502,0.000426214799517766,1713350784.43318
-0.000303079112200066,0.000412030873121694,1713350784.43506
-0.000273172685410827,0.000422392331529409,1713350784.5134
-0.000291395408567041,0.000411117332987487,1713350784.51491
-0.000261945766396821,0.000425830134190619,1713350784.56092
-0.000231221943977289,0.000404217687901109,1713350784.56255
-0.000202589653781615,0.000408376712584868,1713350784.59279
-0.000174726665136404,0.000396380462916568,1713350784.59388
-0.000142320015584119,0.000394649541703984,1713350784.617
-8.57526174513623E-05,0.000404866790631786,1713350784.61857
-5.82502361794468E-05,0.000400395249016583,1713350784.64064
-3.13007876684423E-05,0.000392966729123145,1713350784.64181
-1.81265695573529E-05,0.000522112532053143,1713350784.66077
-2.13960834116733E-06,0.000382701400667429,1713350784.66239
5.48124398846994E-06,0.000350895774317905,1713350784.74083
-6.22650077275466E-06,0.000261825538473204,1713350784.74256
-1.7309190297965E-05,0.000384744838811457,1713350784.77274
-3.92822475987486E-05,0.000366594234947115,1713350784.77418
-7.25783975212835E-05,0.000331927789375186,1713350784.79308
-0.000100225021014921,0.000332745141349733,1713350784.79477
-0.00011051437468268,0.00032288851798512,1713350784.82066
-0.00011075477959821,0.000300194253213704,1713350784.82209
-0.000110153770947363,0.000290505908196792,1713350784.84946
-0.000123352030641399,0.000289568328298628,1713350784.85086
-0.000137824434204958,0.000281346467090771,1713350784.87324
-0.000155133617226966,0.000310387462377548,1713350784.8752
-0.000184222677489743,0.000308945018332452,1713350784.90124
-0.000209561418159865,0.000306060159346089,1713350784.9029
-0.00021009030751884,0.00037748459726572,1713350784.97257
-0.000294039869913831,0.000340822763973847,1713350784.97375
-0.000343419145792723,0.000382581201847643,1713350784.9977
-0.00043535020085983,0.000376979762222618,1713350784.99894
-0.000560841814149171,0.00043181623914279,1713350785.02167
-0.000622674124315381,0.000470593629870564,1713350785.02306
-0.000627361994702369,0.000480810849694535,1713350785.0534
-0.000739390961825848,0.000461217801785097,1713350785.05522
-0.000700517382938415,0.000502783921547234,1713350785.10085
-0.000754392240196466,0.000368156877811998,1713350785.10235
-0.00072499067755416,0.000435109774116427,1713350785.12455
-0.000711239466909319,0.000404265767429024,1713350785.12598
-0.000704027304891497,0.00055432686349377,1713350785.18131
-0.000716913025826216,0.000421623029978946,1713350785.18271
-0.000745737634133548,0.000454606662970036,1713350785.22884
-0.000817306339740753,0.000316373538225889,1713350785.2304
-0.000799925008323044,0.000349934154655784,1713350785.25311
-0.000763527641538531,0.000404890830395743,1713350785.25472
-0.000680082943290472,0.000423906894866377,1713350785.3013
-0.000714388792403042,0.000372123555280268,1713350785.30313
-0.000752324762288481,0.000389528926461935,1713350785.33312
-0.000741987314540893,0.00039724592352286,1713350785.33451
-0.000718091032467783,0.000434124114690349,1713350785.38863
-0.000727875507436693,0.000405371625674889,1713350785.38976
-0.00061288959113881,0.000424291531089693,1713350785.41724
-0.000616615870967507,0.000446889665909112,1713350785.41857
-0.000596998783294112,0.000423137593315914,1713350785.43816
-0.000525406037922949,0.000394481263356283,1713350785.43976
-0.000550143769942224,0.000400900084059686,1713350785.48859
-0.000531848927494139,0.000380874320399016,1713350785.48951
-0.000464607524918392,0.000410083594033495,1713350785.5374
-0.000460087903775275,0.000399145123083144,1713350785.53842
-0.000499538436997682,0.000401957891881466,1713350785.56959
-0.000438379298429936,0.00045237090671435,1713350785.5712
-0.000411814486142248,0.000423281831899658,1713350785.64103
-0.000379720382625237,0.000423377990955487,1713350785.64233
-0.000381859979825094,0.000416286027757451,1713350785.69715
-0.000406814069719985,0.000382965838070959,1713350785.69873
-0.000367603934137151,0.000437970622442663,1713350785.71672
-0.000391836802009493,0.000400491408072412,1713350785.71801
-0.000358925317414105,0.000401597266318277,1713350785.74055
-0.000366834632586688,0.000386475760024041,1713350785.7419
-0.000285601650830358,0.000412535708164796,1713350785.82069
-0.000332480703946203,0.000417992909206077,1713350785.82179
-0.000291419448330998,0.000424892554292455,1713350785.84464
-0.000281659013126045,0.000372964976122603,1713350785.84611
-0.000323898246278986,0.000422175973653793,1713350785.8733
-0.000297814258374274,0.00042176729766652,1713350785.87478
-0.000279206869890913,0.000417247676523402,1713350785.89777
-0.000271225406322628,0.000389408727642149,1713350785.89871
-0.000249709119088948,0.000414867652580142,1713350785.92517
-0.000238458145759068,0.00041991617763415,1713350785.92656
-0.00021965843916405,0.000428474595537409,1713350785.97738
-0.000194560110685416,0.000386355561204255,1713350785.97884
-0.000178452944965102,0.000427777413278818,1713350786.08978
-0.000197997913346626,0.000427705293986946,1713350786.09076
-0.000181794588570483,0.000431431573815644,1713350786.11336
-0.000216869739233516,0.000434484740253538,1713350786.11468
-0.000162081341841258,0.000440494855865836,1713350786.13744
-0.000131405613501556,0.000432946137152612,1713350786.13882
-0.000183477430255152,0.000423666497226805,1713350786.16503
-0.000150950567331165,0.000435133813880384,1713350786.16621
-0.00013017954188399,0.000439413037383929,1713350786.18062
-0.00014720024773851,0.00043075846042484,1713350786.1823
-0.000104912927781697,0.000477036490337923,1713350786.23307
-0.000114120455691591,0.000446480960818008,1713350786.23468
-0.000103302212664858,0.00045157756539993,1713350786.25715
-0.000111019224277698,0.000440494855865836,1713350786.25861
-8.58006969792768E-05,0.000439413037383929,1713350786.2894
-8.41419023345225E-05,0.000448115722974762,1713350786.36548
-4.74079497507773E-05,0.00044417308527045,1713350786.39277
1.16356231956161E-05,0.00048191673704423,1713350786.39438
5.14467610628344E-05,0.000441600743215531,1713350786.40947
6.51017908239737E-05,0.000452298787422478,1713350786.41073
6.96454517310485E-05,0.000442586402641609,1713350786.44076
7.9285709944088E-05,0.000422464450821281,1713350786.44231
7.77230743551627E-05,0.000442297896370292,1713350786.46925
6.11110590398312E-05,0.00043667241698131,1713350786.47068
2.90409752778942E-05,0.000412006833357737,1713350786.48904
4.56770322898592E-07,0.000394769769627601,1713350786.49048
-0.000111019224277698,0.000421094155171886,1713350786.5652
-0.00016325933393091,0.000441576703451574,1713350786.56653
-0.000218696819501929,0.000427753373514861,1713350786.58513
-0.000250189943471923,0.00042061333078891,1713350786.58683
-0.000256416416959837,0.000388879823731259,1713350786.61326
-0.000242256544879638,0.000357747310772538,1713350786.61452
-0.000225043520913459,0.000327648565871641,1713350786.66483
-0.000220788351725787,0.000363685336196795,1713350786.66582
-0.000231294063269161,0.00035120829124935,1713350786.71717
-0.00024545393534936,0.000356425094651058,1713350786.71857
-0.000262570800259709,0.00037378235720098,1713350786.75314
-0.000272571662208065,0.000342553685186431,1713350786.75486
-0.000366474036127329,0.000350342830643058,1713350786.77756
-0.000408112246077508,0.000350511108990759,1713350786.77871
-0.000461482268292457,0.000436624337453395,1713350786.81299
-0.000495571759529412,0.000502880080603063,1713350786.81451
-0.00062171247554943,0.00050925079267472,1713350786.89719
-0.000690612650942057,0.000489561643917114,1713350786.9614
-0.000677967327646911,0.000512135680764914,1713350787.00088
-0.000692968664225191,0.000540792010724545,1713350787.00248
-0.000653998926281929,0.0005263676866889,1713350787.0532
-0.000708498817402869,0.000481772469356656,1713350787.05464
-0.000612000119872391,0.000510164361912757,1713350787.06868
-0.000651907408609986,0.000609644106589258,1713350787.07009
-0.000552451703697443,0.000482205214211717,1713350787.08132
-0.000338250451022759,0.000439196679508314,1713350787.08287
-0.00061351468320936,0.000374864175682887,1713350787.09808
-0.000741650757845491,0.000397462310502306,1713350787.09976
-0.000760690832976252,0.000425709935370833,1713350787.12491
-0.000775908527430147,0.000488335557747632,1713350787.12646
-0.000744824123103172,0.000474536267574877,1713350787.15353
-0.000748886959627271,0.000474247790407389,1713350787.15491
-0.000739703478757292,0.000448764825705439,1713350787.20533
-0.000657893484458327,0.000588825030717999,1713350787.20751
-0.000653470051474869,0.00043022955651395,1713350787.22493
-0.000560168700758368,0.000456001027487218,1713350787.22638
-0.000502832001075149,0.000514034880325198,1713350787.26149
-0.000443884578999132,0.000418834330048412,1713350787.26383
-0.00040844883187674,0.000434027955634519,1713350787.2855
-0.000433234614320099,0.000423257792135701,1713350787.28699
-0.000429989158874378,0.000392437825212255,1713350787.32109
-0.000412439549108967,0.000378494296455756,1713350787.32265
-0.000337649427819997,0.000387269101338461,1713350787.40155
-0.000409290252719075,0.00042203173507005,1713350787.40286
-0.000346760789398104,0.00037810966023244,1713350787.47758
-0.000397005525883287,0.000416766852140427,1713350787.50103
-0.000394577422412112,0.000449149461928755,1713350787.538
-0.000350318790879101,0.000467973208287731,1713350787.53921
-0.000351520808180794,0.000394649541703984,1713350787.55301
-0.000365704734576866,0.000449173501692712,1713350787.55459
-0.000315844663418829,0.000430181476986036,1713350787.58125
-0.000298006576485932,0.000446264602942392,1713350787.58307
-0.000227327371248975,0.000450688065029681,1713350787.6169
-0.000262570800259709,0.000422416371293366,1713350787.61858
-0.000264494039583951,0.000436912814620882,1713350787.64106
-0.00025189679581672,0.00046040044981055,1713350787.64262
-0.000228096672799438,0.000476723973406479,1713350787.71282
-0.000207998775294982,0.000437177281128243,1713350787.71436
-0.000206436146982014,0.000436840695329011,1713350787.74883
-0.000182732168468647,0.00044893310405314,1713350787.75025
-0.000187299869139679,0.000441913260146976,1713350787.80235
-0.000157513641170226,0.000448909064289182,1713350787.80299
-0.000141454554977827,0.000457323243608698,1713350787.82484
-0.000120923934446182,0.000444052857346833,1713350787.82658
-9.07530484255403E-05,0.00044813976273872,1713350787.87307
-7.78192406869493E-05,0.000434965535532683,1713350787.87469
-5.81540734856389E-05,0.000463213189505041,1713350787.9491
-3.48828289133962E-05,0.000429580453783274,1713350787.95051
-3.01468407997163E-05,0.000426815793616697,1713350787.97314
-5.76973036459094E-07,0.000436720496509224,1713350787.97442
4.5628949010279E-05,0.000441456475527957,1713350787.9977
6.9693531258963E-05,0.000452298787422478,1713350787.99841
9.88066312856972E-05,0.000438138900790364,1713350788.06446
0.000152392996824346,0.000456890527857468,1713350788.06585
0.000135901194880717,0.000449582206783816,1713350788.10864
0.000145036596222781,0.00045960710849613,1713350788.10974
0.000150878448039293,0.000470257073175162,1713350788.12105
0.000121741308248602,0.000419002608396113,1713350788.12247
0.000153354616486467,0.000424171332269907,1713350788.14081
0.0001640045811655,0.000426214799517766,1713350788.14241
0.000198430643649772,0.000416093709645793,1713350788.17687
0.000194391832337715,0.000425301259383559,1713350788.17839
0.000187155630555935,0.000394312985008582,1713350788.20087
0.000212879007449374,0.000355944270268083,1713350788.20245
0.000224370392970741,0.000400010583689436,1713350788.24092
0.000246295356191695,0.000356016389559954,1713350788.24197
0.00018953563994728,0.000351833354216069,1713350788.28946
0.000189872211194597,0.000492302235215902,1713350788.29112
0.000121524943097029,0.000409674888942391,1713350788.34532
5.18554516020231E-05,0.000400082702981308,1713350788.34671
-1.7862123058876E-05,0.000363829574780539,1713350788.36959
-0.000100513512734324,0.00037810966023244,1713350788.37079
-0.000137223425554112,0.000343803811119869,1713350788.4015
-0.000190040489542298,0.0003583483339753,1713350788.40306
-0.000232015285291709,0.000343683612300083,1713350788.45712
-0.000240453504375182,0.000357867509592324,1713350788.45883
-0.000268460746156052,0.000344621192198247,1713350788.46492
-0.00028990491409786,0.000350318790879101,1713350788.4662
-0.000297477672575042,0.000390779023291543,1713350788.50169
-0.000347361812600866,0.000367579894373193,1713350788.50286
-0.00039248590474017,0.000385393941542134,1713350788.55319
-0.000452971900813282,0.000420372933149338,1713350788.55464
-0.000513674283865839,0.000445495301391929,1713350788.56088
-0.000492109917104244,0.000465761491796002,1713350788.5625
-0.00061844295123592,0.000487518176669255,1713350788.64066
-0.000672005291562527,0.00045184200280346,1713350788.64179
-0.000599306717049331,0.00060062890406698,1713350788.66066
-0.000561466906219721,0.000479152047773823,1713350788.66187
-0.000657484808471054,0.000454101827926934,1713350788.68555
-0.000629429472610354,0.000440735282609239,1713350788.68697
-0.000568294373806566,0.000478502974146977,1713350788.72461
-0.00061906804330647,0.000462275609606877,1713350788.72584
-0.000452947861049324,0.000424051133450121,1713350788.77335
-0.000302405998809263,0.000418401614297181,1713350788.77493
-0.000652099726721644,0.00036188229569234,1713350788.79755
-0.000928229419514537,0.000346664630342275,1713350788.79931
-0.000842765264678746,0.000398015225073323,1713350788.85271
-0.000742588308639824,0.000410973094403744,1713350788.85421
-0.000879595405422151,0.00042679175385274,1713350788.90065
-0.000816729385405779,0.000448788865469396,1713350788.902
-0.000761700561270118,0.000417488074162975,1713350788.94517
-0.000776773958932608,0.00039265418308787,1713350788.94667
-0.000719629635568708,0.000384504441171885,1713350789.00104
-0.000663350685499609,0.000398880685679615,1713350789.00253
-0.000526271527633071,0.000409819127526134,1713350789.02462
-0.000487854733364657,0.00047626718878746,1713350789.02559
-0.000449149461928755,0.000436720496509224,1713350789.04061
-0.000477733672596514,0.000409674888942391,1713350789.04173
-0.000542571011465043,0.000446841557277367,1713350789.13705
-0.000519612280186266,0.000393880269257352,1713350789.13858
-0.000458044465631247,0.000397414201870561,1713350789.16071
-0.000496172753628343,0.000419002608396113,1713350789.16195
-0.000482517731143162,0.000456025067251176,1713350789.21867
-0.000461482268292457,0.000429267936851829,1713350789.22022
-0.000490571314003319,0.00041796886944212,1713350789.23709
-0.00041188663453795,0.000477397115901113,1713350789.23858
-0.000446601159637794,0.000376186420908198,1713350789.26145
-0.000420156575273722,0.000417560193454847,1713350789.26292
-0.000406501552788541,0.000394168746424839,1713350789.29333
-0.000446000165538862,0.000414242589613423,1713350789.29485
-0.000414146430557594,0.000414386828197166,1713350789.36077
-0.000414314708905295,0.000439485156675801,1713350789.36221
-0.000417632312746719,0.00041849777335301,1713350789.38875
-0.000462131371023133,0.000405756291002035,1713350789.39015
-0.000396404502680525,0.000582935113925487,1713350789.41723
-0.000408472871640697,0.000417103408835828,1713350789.41888
-0.000389072141842917,0.000414170470321551,1713350789.44529
-0.000403496465878561,0.000429844920290634,1713350789.44694
-0.000395755429053679,0.000404193648137152,1713350789.49331
-0.000416526454500854,0.000369575252989307,1713350789.49484
-0.000351977592799813,0.000409674888942391,1713350789.5369
-0.000326134002534673,0.000410083594033495,1713350789.53859
-0.000326638866681606,0.000379600183805451,1713350789.56103
-0.000315387878799811,0.000413425208535045,1713350789.56269
-0.00028858266887255,0.000410804786952212,1713350789.59673
-0.000277740386081859,0.000390923261875287,1713350789.62912
-0.000335029006237164,0.000434628978837281,1713350789.64519
-0.000256320257904008,0.000405515864258632,1713350789.64643
-0.000271489843726158,0.000400972203351557,1713350789.68122
-0.000261248584138229,0.000403472426114604,1713350789.68267
-0.000254108541412279,0.000394168746424839,1713350789.77337
-0.000286058406345546,0.00040739105315879,1713350789.77482
-0.0002854093327187,0.000414819573052228,1713350789.79303
-0.000286058406345546,0.000449077342636883,1713350789.79475
-0.000289135612547398,0.000409146014135331,1713350789.79633
-0.000251968944212422,0.000413761794334278,1713350789.79774
-0.00030666115344502,0.000406958308303729,1713350789.84534
-0.000245646253461018,0.000419964257162064,1713350789.84681
-0.000222591392230242,0.000429123698268086,1713350789.90091
-0.000201027025468647,0.000409121945267543,1713350789.90235
-0.000180640636244789,0.000421094155171886,1713350789.9566
-0.000165807621669956,0.000411261571571231,1713350789.95799
-0.000161816889885813,0.000379215518478304,1713350789.98075
-0.000136814735014923,0.000384023645892739,1713350789.98194
-0.000127631239593029,0.000337072444381192,1713350790.0287
-0.000147055994602852,0.000361858255928382,1713350790.02992
-0.000146214588312432,0.000371161935618147,1713350790.05334
-0.000204560972633772,0.000412006833357737,1713350790.05483
-0.000280216569080949,0.000362339051207528,1713350790.08249
-0.000329475646140054,0.0003642623196356,1713350790.08307
-0.000353540235664695,0.000346304033882916,1713350790.13313
-0.000374623778043315,0.000321999017614871,1713350790.1348
-0.000397005525883287,0.00029290997190401,1713350790.18497
-0.000432393193477765,0.000294785131700337,1713350790.20105
-0.000455424044048414,0.000298607570584863,1713350790.20267
-0.000472685147542506,0.000307935319142416,1713350790.20413
-0.000493191764689982,0.000296756450552493,1713350790.26081
-0.000525622454006225,0.000327864923747256,1713350790.26198
-0.000567020266316831,0.000317359197651967,1713350790.30539
-0.000615413882769644,0.000352386268787086,1713350790.30643
-0.000685684382915497,0.000375561357941478,1713350790.32479
-0.000735784880816937,0.000351136171957478,1713350790.32607
-0.00077287940075621,0.000404914870159701,1713350790.37757
-0.000739150505978614,0.000494706269819289,1713350790.37863
-0.00089406780898571,0.000416550494264811,1713350790.40134
-0.000850121665280312,0.000468285725219175,1713350790.40294
-0.000794924621004611,0.000399313430534676,1713350790.44534
-0.00082879769615829,0.000442370044765994,1713350790.44705
-0.000814950384665281,0.000446889665909112,1713350790.51683
-0.000791078084148467,0.000395178445614874,1713350790.5179
-0.000798049848526716,0.000427224498707801,1713350790.55347
-0.000818965141661465,0.000392005080357194,1713350790.55496
-0.000561683264095336,0.000404145568609238,1713350790.5695
-0.000787135446444154,0.000385081424610689,1713350790.57036
-0.000914430129341781,0.00035094385384582,1713350790.62516
-0.000885172805283219,0.000326061883242801,1713350790.62669
-0.000917050521820784,0.000370007997844368,1713350790.64118
-0.000829927623271942,0.000378566415747628,1713350790.64263
-0.000893514836207032,0.000437393639003858,1713350790.67683
-0.000885028566699475,0.000379479955881834,1713350790.67803
-0.000854809593874961,0.000385153543902561,1713350790.72493
-0.000850001466460526,0.000391235807910562,1713350790.73713
-0.000873224635142833,0.000369575252989307,1713350790.81354
-0.000787111406680197,0.000413280969951302,1713350790.81469
-0.000736409914679825,0.000330293027218431,1713350790.84113
-0.00066695676650852,0.000376186420908198,1713350790.84251
-0.000705421669408679,0.000353444076608866,1713350790.87293
-0.000734847271814942,0.000376378739019856,1713350790.8745
-0.000717514019925147,0.000379600183805451,1713350790.89737
-0.000709484505932778,0.000426767714088783,1713350790.89912
-0.000672101450618356,0.000342553685186431,1713350790.9489
-0.000617409241385758,0.000410468230256811,1713350790.95036
-0.000673664093483239,0.000369455054169521,1713350790.97676
-0.000641089165583253,0.000441913260146976,1713350790.9785
-0.000688881729729474,0.000364550796803087,1713350791.0574
-0.000643348961602896,0.000380922399926931,1713350791.05897
-0.000600003870204091,0.000450014922535047,1713350791.07715
-0.000571371580008417,0.000385850726161152,1713350791.07861
-0.000637483084574342,0.000379840581445023,1713350791.12514
-0.000597263220697641,0.00048456116928719,1713350791.12657
-0.00057858374202624,0.000430253596277908,1713350791.15314
-0.000554158526938409,0.000373085174942389,1713350791.15467
-0.000579569430556148,0.000424027093686163,1713350791.1773
-0.000577357655856758,0.000367483735317364,1713350791.17854
-0.000554278783965856,0.00040289547177963,1713350791.19725
-0.00056120241060853,0.000349116773577407,1713350791.19879
-0.000531993166077882,0.000410636508604512,1713350791.2534
-0.000570265692658722,0.000376547017367557,1713350791.25505
-0.000581660948228091,0.00042018061503768,1713350791.32461
-0.000535599247086793,0.000383903417969123,1713350791.32617
-0.00052124704234302,0.000353564275428653,1713350791.40147
-0.00051331368740648,0.000393832160625607,1713350791.40273
-0.00050273584201932,0.000415612914366648,1713350791.42482
-0.00050158187514171,0.000364238279871643,1713350791.42579
-0.000472348590847105,0.000409218133427203,1713350791.48517
-0.000500980881042779,0.000375128642190248,1713350791.48664
-0.000520141213200986,0.000385466060834005,1713350791.51713
-0.000477613473776728,0.00040606880793348,1713350791.51872
-0.000470521510578692,0.000437249400420114,1713350791.59331
-0.000440566975157708,0.000514419516548514,1713350791.59445
-0.000430902699008584,0.000411550048738718,1713350791.69257
-0.000429989158874378,0.000393255206290632,1713350791.69406
-0.000444004777818918,0.000382917758543044,1713350791.75288
-0.000399169162847102,0.000425806094426662,1713350791.75444
-0.000355343276169151,0.000472180312499404,1713350791.90992
-0.000331615243339911,0.000429748732130975,1713350791.91058
-0.000354886491550133,0.00042388285510242,1713350791.92958
-0.000340918952133507,0.000470064725959674,1713350791.93055
-0.000309377734083682,0.000443499942775816,1713350791.94903
-0.000276177743216977,0.000454390305094421,1713350791.95071
-0.000331134448060766,0.000448500359198079,1713350791.98079
-0.000326398439938202,0.000436888774856925,1713350791.98234
-0.000239756336668506,0.000468213605927303,1713350792.00114
-0.000305483175907284,0.000442201737314463,1713350792.0024
-0.000269807002041489,0.000476483546663076,1713350792.06546
-0.000229731434956193,0.000473839114420116,1713350792.06693
-0.000191939689102583,0.00047732496750541,1713350792.11687
-0.000158859911607578,0.000474969012429938,1713350792.1182
-0.000154316250700504,0.000457996386103332,1713350792.14547
-0.000123135658213869,0.000481243594549596,1713350792.14761
-8.01992500782944E-05,0.000447370461188257,1713350792.20191
-0.00010200402175542,0.00045263534411788,1713350792.20287
-5.70482079638168E-05,0.000498384470120072,1713350792.22186
-5.14948442287277E-05,0.000393135007470846,1713350792.22273
-6.64240214973688E-05,0.000475858512800187,1713350792.26905
-6.86838320689276E-05,0.000429388135671616,1713350792.27112
-0.000105562023236416,0.000365993211744353,1713350792.29692
-0.000137343624373898,0.000397173804230988,1713350792.29855
-0.000137559982249513,0.000378590455511585,1713350792.34133
-0.00013340097211767,0.000362170772859827,1713350792.34267
-0.000150012987433001,0.000365464336937293,1713350792.36463
-0.000177443245775066,0.000341880571795627,1713350792.36574
-0.000174582426552661,0.000343803811119869,1713350792.38866
-0.000199969232198782,0.00043191239819862,1713350792.39018
-0.000217855398659594,0.000445807818323374,1713350792.44169
-0.000313608878059313,0.000405948609113693,1713350792.44258
-0.000413112691603601,0.000504274445120245,1713350792.46881
-0.000521535519510508,0.000522809685207903,1713350792.47061
-0.000640512211248279,0.000644358689896762,1713350792.49418
-0.000622529885731638,0.000623323197942227,1713350792.4959
-0.000702512741554529,0.000592887867242098,1713350792.51748
-0.000644454848952591,0.000487758574308828,1713350792.51848
-0.000665009487420321,0.000482589850435033,1713350792.54141
-0.000752396881580353,0.000539037049748004,1713350792.54259
-0.000626232125796378,0.000628828478511423,1713350792.59736
-0.00067339965607971,0.000485739175928757,1713350792.59854
-0.000560096581466496,0.000450183200882748,1713350792.61321
-0.000458356982562691,0.000455568282632157,1713350792.61561
-0.000700926058925688,0.000464006530819461,1713350792.66458
-0.000748526363167912,0.000531127734575421,1713350792.66592
-0.000771677412558347,0.000475017091957852,1713350792.69309
-0.000706214981619269,0.000486195931443945,1713350792.69467
-0.0006981854676269,0.000515044608619064,1713350792.74101
-0.000730399799067527,0.000493744679260999,1713350792.74264
-0.000708378618583083,0.000572116812691093,1713350792.76884
-0.000649431254714727,0.000541176646947861,1713350792.76999
-0.000580482941586524,0.000529613171238452,1713350792.79318
-0.000459102244349197,0.000531560450326651,1713350792.79473
-0.000394889968447387,0.000496894004754722,1713350792.81666
-0.000437081122072414,0.000514203158672899,1713350792.81767
-0.000431936437962577,0.000552668061573058,1713350792.84529
-0.000476531655294821,0.000519516121130437,1713350792.84685
-0.000465184508357197,0.000540912209544331,1713350792.88936
-0.000445447221864015,0.000551874691154808,1713350792.89075
-0.000412343390053138,0.000447514699772,1713350792.92492
-0.00045078422408551,0.000478358735563234,1713350792.92636
-0.000424868514528498,0.000510308600496501,1713350792.94151
-0.000380441604647785,0.000586372858379036,1713350792.94294
-0.000412752095144242,0.000495163083542138,1713350792.99312
-0.000474343949463218,0.000494225474540144,1713350792.99439
-0.000428138038842008,0.000478671252494678,1713350793.02199
-0.000440783362137154,0.000523675174918026,1713350793.04531
-0.000397197843994945,0.000464054610347375,1713350793.07342
-0.000415997550589964,0.000458477181382477,1713350793.07476
-0.000444317323854193,0.000550792901776731,1713350793.09724
-0.000441720942035317,0.000503336836118251,1713350793.0985
-0.000418690091464669,0.000534156803041697,1713350793.12478
-0.000423329911427572,0.00050131743773818,1713350793.12609
-0.00042335395119153,0.000518915127031505,1713350793.19742
-0.000414963811635971,0.000427633174695075,1713350793.19879
-0.000407799729146063,0.000494201434776187,1713350793.22933
-0.000355751952156425,0.000539469765499234,1713350793.23065
-0.000420132535509765,0.000470425351522863,1713350793.2493
-0.000385562219889835,0.000490042439196259,1713350793.25065
-0.000385177583666518,0.000496052554808557,1713350793.28117
-0.000388254760764539,0.000522737565916032,1713350793.28262
-0.000384672719519585,0.000471867766464129,1713350793.29351
-0.000368445354979485,0.000494562031235546,1713350793.29472
-0.000270023389020935,0.000494345673359931,1713350793.31356
-0.000321013358188793,0.000478863570606336,1713350793.31518
-0.000306084199110046,0.000479897309560329,1713350793.34077
-0.000255142280366272,0.000608562317211181,1713350793.34235
-0.000270480144536123,0.000498432549647987,1713350793.41549
-0.000263965164776891,0.000488047051476315,1713350793.4158
-0.000228553442866541,0.000511053833179176,1713350793.44079
-0.000250021636020392,0.000453621003543958,1713350793.4424
-0.000247473362833261,0.000486845034174621,1713350793.46082
-0.000208840196137317,0.000475858512800187,1713350793.46231
-0.000223865528823808,0.00049549964023754,1713350793.5173
-0.000209753736271523,0.000500860682222992,1713350793.54103
-0.000217975597479381,0.000490691512823105,1713350793.56139
-0.000207085235160775,0.000489176949486136,1713350793.56288
-0.000200834692805074,0.000498023873660713,1713350793.64531
-0.00018504005856812,0.000508409400936216,1713350793.64676
-0.000178741436684504,0.000529468932654709,1713350793.67363
-0.000158331022248603,0.000515741761773825,1713350793.67494
-0.000144748104503378,0.000499899033457041,1713350793.72097
-0.000109721040644217,0.000504827359691262,1713350793.72242
-8.66421178216115E-05,0.000494465872179717,1713350793.7652
-5.750497803092E-05,0.000486484437715262,1713350793.76679
-4.61338022432756E-05,0.000409121945267543,1713350793.79326
-3.20220024150331E-05,0.000440038100350648,1713350793.79451
-3.28393798554316E-05,0.000449269660748541,1713350793.80908
-3.10844225168694E-05,0.000486292090499774,1713350793.81065
-2.74542999250116E-05,0.000459631148260087,1713350793.83347
-7.7098018664401E-05,0.000439677503891289,1713350793.83494
-9.40225654630922E-05,0.000413449248299003,1713350793.86146
-0.000118447751447093,0.000420421012677252,1713350793.86309
-0.000131381573737599,0.000424099212978035,1713350793.90895
-0.000166336511028931,0.000403280108002946,1713350793.91051
-0.000210258585866541,0.000389889522921294,1713350793.93746
-0.000242256544879638,0.000371450441889465,1713350793.9391
-0.00026617688126862,0.000391524285078049,1713350793.9809
-0.00031019511516206,0.000390033761505038,1713350793.98246
-0.00035676165134646,0.000402871432015672,1713350794.0334
-0.000396356423152611,0.000422464450821281,1713350794.03466
-0.000397221883758903,0.000420541211497039,1713350794.13675
-0.000457635789643973,0.000491653161589056,1713350794.16885
-0.000483335112221539,0.000502014590892941,1713350794.1888
-0.000617601559497416,0.000385442021070048,1713350794.19026
-0.000787375844083726,0.000523074122611433,1713350794.24457
-0.000820575864054263,0.000523146241903305,1713350794.24607
-0.000794203369878233,0.000517039967235178,1713350794.3208
-0.000723620352800936,0.000555360573343933,1713350794.32248
-0.000704772537574172,0.000497711356729269,1713350794.33715
-0.000697392097208649,0.00052663212409243,1713350794.33836
-0.000691574299708009,0.00059295998653397,1713350794.42097
-0.000697344017680734,0.000456842448329553,1713350794.42224
-0.000663494924083352,0.000517785199917853,1713350794.44537
-0.000680203142110258,0.000347530090948567,1713350794.44709
-0.000657701166346669,0.000445567420683801,1713350794.46491
-0.000702993536833674,0.00045660202158615,1713350794.46627
-0.000868152070324868,0.000354694173438475,1713350794.51697
-0.000875340192578733,0.00034714542562142,1713350794.51881
-0.00089248112635687,0.000402655045036227,1713350794.54503
-0.000773408333770931,0.000443668221123517,1713350794.54651
-0.000826057104859501,0.000456025067251176,1713350794.56902
-0.000805286050308496,0.000449750485131517,1713350794.57018
-0.000850025506224483,0.000398520089220256,1713350794.58856
-0.000809108489193022,0.00044116799836047,1713350794.58986
-0.000847573392093182,0.000382268684916198,1713350794.66524
-0.00073989579686895,0.000423930934630334,1713350794.66679
-0.000667822256218642,0.000439364957856014,1713350794.72064
-0.000736818590667099,0.000408112246077508,1713350794.72198
-0.000690348213538528,0.000428426516009495,1713350794.76922
-0.000641089165583253,0.000414675334468484,1713350794.77045
-0.000698065268807113,0.000430638232501224,1713350794.82078
-0.000619260361418128,0.000473935273475945,1713350794.82218
-0.00071272999048233,0.000433667359175161,1713350794.84949
-0.000692391651682556,0.000388086482416838,1713350794.85079
-0.000734102039132267,0.000408665189752355,1713350794.87301
-0.000605533190537244,0.000415108050219715,1713350794.87447
-0.00066986569436267,0.000411718327086419,1713350794.89734
-0.000592407071962953,0.000477661553304642,1713350794.89868
-0.000565193186048418,0.000406189006753266,1713350794.92094
-0.000634045281913132,0.000418209296185523,1713350794.92276
-0.000581300351768732,0.000434797257184982,1713350794.94892
-0.000587454705964774,0.000375825795345008,1713350794.94998
-0.000566683651413769,0.000401981931645423,1713350794.96879
-0.000602864718530327,0.000377532676793635,1713350794.96994
-0.000545816496014595,0.000455303845228627,1713350794.99284
-0.0005362483789213,0.000379912700736895,1713350794.99412
-0.000474800734082237,0.000382821599487215,1713350795.02482
-0.000502303126268089,0.000403929210733622,1713350795.02616
-0.000407054467359558,0.000404337886720896,1713350795.05299
-0.000463429547380656,0.000389360619010404,1713350795.05459
-0.000435782916611061,0.000385610299417749,1713350795.07667
-0.000468165526399389,0.000390490546124056,1713350795.07798
-0.000451409287052229,0.000338082143571228,1713350795.09687
-0.000411429849918932,0.000342072889907286,1713350795.0985
-0.000391331966966391,0.000379624223569408,1713350795.15283
-0.000431864318670705,0.000388086482416838,1713350795.15386
-0.000425421458203346,0.000445062585640699,1713350795.22857
-0.00041056438931264,0.000387677806429565,1713350795.22999
-0.000421334552811459,0.000420324853621423,1713350795.25302
-0.000421478791395202,0.000389817403629422,1713350795.25448
-0.000396043906221166,0.000429316016379744,1713350795.27303
-0.000391283887438476,0.000419940217398107,1713350795.27462
-0.000386932544643059,0.000407270825235173,1713350795.31024
-0.000343202787917107,0.000519251683726907,1713350795.31175
-0.000380177138140425,0.000420541211497039,1713350795.35289
-0.000337144563673064,0.000419603631598875,1713350795.35462
-0.000352650735294446,0.000420324853621423,1713350795.38143
-0.000314378179609776,0.000425060832640156,1713350795.38292
-0.000288654788164422,0.000429628533311188,1713350795.45272
-0.000285769929178059,0.000392077228752896,1713350795.45428
-0.000235717525356449,0.00042494063382037,1713350795.45574
-0.000199464382603765,0.000420925876824185,1713350795.45721
-0.000140468895551749,0.000359069555997848,1713350795.53279
-0.000101883822935633,0.000415709073422477,1713350795.53427
-6.95492926752195E-05,0.00035058322828263,1713350795.5542
-4.59174370917026E-05,0.000397846946725622,1713350795.55499
-5.38988970220089E-05,0.00039222146733664,1713350795.58458
-5.83704386372119E-05,0.00037705188151449,1713350795.58584
-8.75556579558179E-05,0.00030781512032263,1713350795.64161
-0.000152441076352261,0.000366329797543585,1713350795.64323
-0.00021088364883326,0.000375729636289179,1713350795.68528
-0.000242208465351723,0.000309546041535214,1713350795.68637
-0.000280601205304265,0.00034053428680636,1713350795.72067
-0.000308896938804537,0.000316686084261164,1713350795.72239
-0.000324811786413193,0.00030084335594438,1713350795.76879
-0.000357627111952752,0.000333802949171513,1713350795.76987
-0.000372556300135329,0.000330821902025491,1713350795.78522
-0.00037854237598367,0.000347962806699797,1713350795.7866
-0.000424964673584327,0.000350006273947656,1713350795.8451
-0.000446000165538862,0.00040950661059469,1713350795.84692
-0.000482253293739632,0.000366329797543585,1713350795.86107
-0.000498095992952585,0.000404217687901109,1713350795.86249
-0.000623227038886398,0.000420012336689979,1713350795.91698
-0.000690540531650186,0.000426503276685253,1713350795.91804
-0.000795886211562902,0.000430950778536499,1713350795.94115
-0.000812594371382147,0.000452274747658521,1713350795.94253
-0.000787592201959342,0.000456361623946577,1713350796.00079
-0.000740496790967882,0.000478022149764001,1713350796.00226
-0.000786822929512709,0.000463165109977126,1713350796.02101
-0.00077191781019792,0.000464078650111333,1713350796.0222
-0.000732058600988239,0.000457347283372656,1713350796.07746
-0.00072922179242596,0.000457996386103332,1713350796.07898
-0.000737948517780751,0.000397967145545408,1713350796.09711
-0.000730207422748208,0.000399193202611059,1713350796.09884
-0.000476772052934393,0.000405227387091145,1713350796.15672
-0.00077403336763382,0.000356785691110417,1713350796.15826
-0.000864738307427615,0.0002793270687107,1713350796.20528
-0.000825768627692014,0.000283510133158416,1713350796.20686
-0.000727538950741291,0.000334115466102958,1713350796.28898
-0.000812882906757295,0.000349910114891827,1713350796.29044
-0.00075179582927376,0.000340678525390103,1713350796.31327
-0.000759609043598175,0.000551514094695449,1713350796.34116
-0.000816488987766206,0.000350607268046588,1713350796.36507
-0.000855795224197209,0.000286178634269163,1713350796.36664
-0.000725086836609989,0.000310507661197335,1713350796.3929
-0.000632001843769103,0.00031521960045211,1713350796.39436
-0.000669649336487055,0.000390875182347372,1713350796.43325
-0.000624381005764008,0.000339692865964025,1713350796.43478
-0.000661523605231196,0.000350895774317905,1713350796.46474
-0.000572910183109343,0.00034026984940283,1713350796.46624
-0.000663230486679822,0.000325965724186972,1713350796.49365
-0.000574857462197542,0.000351785274688154,1713350796.49463
-0.000630823837127537,0.000356665492290631,1713350796.54234
-0.000629982445389032,0.0003766912559513,1713350796.54397
-0.000441913260146976,0.000374888215446845,1713350796.58848
-0.00057266978546977,0.000357747310772538,1713350796.58955
-0.000533844286110252,0.000361040874850005,1713350796.61713
-0.000503889750689268,0.000382124417228624,1713350796.61829
-0.000458909926237538,0.000361281272489578,1713350796.64098
-0.000441672862507403,0.000369094457710162,1713350796.64238
-0.000424243451561779,0.000372556300135329,1713350796.69708
-0.000343322986736894,0.000371330213965848,1713350796.69839
-0.000392990768887103,0.000363180472049862,1713350796.73328
-0.000418666051700711,0.000359838857548311,1713350796.73499
-0.000401284749386832,0.000353780633304268,1713350796.76109
-0.000378446216927841,0.000403664744226262,1713350796.76239
-0.000367075059330091,0.000372484180843458,1713350796.80945
-0.000354333547875285,0.000373614078853279,1713350796.81087
-0.000366498075891286,0.000377941381884739,1713350796.88518
-0.000363444938557222,0.000366882712114602,1713350796.90069
-0.000355295196641237,0.000365488376701251,1713350796.91373
-0.000323441461659968,0.000373638118617237,1713350796.91492
-0.000319787301123142,0.000382557162083685,1713350796.97379
-0.000314931123284623,0.000384432321880013,1713350796.97531
-0.00030005001462996,0.000400443328544498,1713350797.02182
-0.000261128385318443,0.000410756707424298,1713350797.02285
-0.000274711288511753,0.000390754983527586,1713350797.08073
-0.000233361555729061,0.000395851588109508,1713350797.08174
-0.00024651171406731,0.000392413785448298,1713350797.10857
-0.000217831358895637,0.000396741088479757,1713350797.10996
-0.000222182701691054,0.000391452165786177,1713350797.13696
-0.000208840196137317,0.000398496049456298,1713350797.1386
-0.000210066267754883,0.000401260709622875,1713350797.15284
-0.000179534777998924,0.000403640704462305,1713350797.15437
-0.000160927389515564,0.000404097489081323,1713350797.18142
-0.000147055994602852,0.000413833913626149,1713350797.18309
-0.000146575184771791,0.000403857091441751,1713350797.20908
-0.000153210377902724,0.00037705188151449,1713350797.21061
-0.000143065277370624,0.00035385275259614,1713350797.25719
-0.000142656586831436,0.000357506913132966,1713350797.25866
-0.000137656155857258,0.000370801339158788,1713350797.30117
-0.00013789655349683,0.000325340661220253,1713350797.30279
-0.000218312168726698,0.000366810592822731,1713350797.34513
-0.000242376758251339,0.000385610299417749,1713350797.34674
-0.000275408470770344,0.000376859563402832,1713350797.36919
-0.000373830436728895,0.00036390169407241,1713350797.3707
-0.000447658938355744,0.000344549072906375,1713350797.41675
-0.000532161444425583,0.000343034509569406,1713350797.43694
-0.00057266978546977,0.000315604236675426,1713350797.43861
-0.000605076435022056,0.000328610185533762,1713350797.4401
-0.000617072684690356,0.000296852609608322,1713350797.50062
-0.000613658921793103,0.000326494598994032,1713350797.50195
-0.000631472968962044,0.00031442625913769,1713350797.5246
-0.000616663950495422,0.000366449996363372,1713350797.52581
-0.000640512211248279,0.000419531512307003,1713350797.57698
-0.000652027607429773,0.000403616664698347,1713350797.57855
-0.000689867418259382,0.000401260709622875,1713350797.62129
-0.000698714342433959,0.00046189094427973,1713350797.62258
-0.000695805414579809,0.000510356680024415,1713350797.64517
-0.00069465150590986,0.000472156272735447,1713350797.64666
-0.000706623657606542,0.000528964039403945,1713350797.6886
-0.000766364450100809,0.000503481074701995,1713350797.6897
-0.000739030307158828,0.000507351593114436,1713350797.71702
-0.000706335180439055,0.000514491635840386,1713350797.71872
-0.000660393736325204,0.000485210272017866,1713350797.76518
-0.000705638027284294,0.000516102358233184,1713350797.76627
-0.000722442346159369,0.000507712247781456,1713350797.82081
-0.00069121370324865,0.000508673838339746,1713350797.82215
-0.00070311373565346,0.000435133813880384,1713350797.86514
-0.000790813646744937,0.000375585397705436,1713350797.8666
-0.000656787655316293,0.00036452675703913,1713350797.92472
-0.000576155667658895,0.000425854173954576,1713350797.92565
-0.000808820012025535,0.000430950778536499,1713350797.9488
-0.000776557601056993,0.000419146876083687,1713350797.94993
-0.000739487120881677,0.000370200315956026,1713350798.02059
-0.000797328655607998,0.000392533984268084,1713350798.02205
-0.000806776573881507,0.000380657962523401,1713350798.0451
-0.000728404382243753,0.000362916034646332,1713350798.04634
-0.00071970175486058,0.000357170356437564,1713350798.07014
-0.000792881124652922,0.000367195258149877,1713350798.07093
-0.000803603208623827,0.000407511251978576,1713350798.11346
-0.000769513717386872,0.000382581201847643,1713350798.1147
-0.000789275043644011,0.000391452165786177,1713350798.14141
-0.000774658401496708,0.00037589791463688,1713350798.14277
-0.000738261034712195,0.000378614524379373,1713350798.19272
-0.000700012547895312,0.000371282134437934,1713350798.19426
-0.000650513044092804,0.000357987737515941,1713350798.21674
-0.000682078301906586,0.000335581949912012,1713350798.21827
-0.00067965016933158,0.000347554130712524,1713350798.28895
-0.000645272200927138,0.000332817289745435,1713350798.29036
-0.000636377197224647,0.000355775991920382,1713350798.34955
-0.000583031272981316,0.000350390910170972,1713350798.35086
-0.0005708186654374,0.000336134864483029,1713350798.36876
-0.000487085431814194,0.000350463029462844,1713350798.37025
-0.000515044608619064,0.000349573529092595,1713350798.39712
-0.000508120923768729,0.000359910976840183,1713350798.39856
-0.000491244427394122,0.000357386714313179,1713350798.41275
-0.000503793591633439,0.000362363090971485,1713350798.41434
-0.000490403035655618,0.000344188447343186,1713350798.48874
-0.000421550910687074,0.000388134561944753,1713350798.49045
-0.000469367572804913,0.000344284606399015,1713350798.50867
-0.000412631867220625,0.000355655793100595,1713350798.51036
-0.000429868960054591,0.000355511554516852,1713350798.56506
-0.000368685752619058,0.000353708514012396,1713350798.56643
-0.000374527618987486,0.000348203233443201,1713350798.58481
-0.000365247979061678,0.000349741807440296,1713350798.58633
-0.00035385275259614,0.000364286359399557,1713350798.6169
-0.000360656238626689,0.000357338634785265,1713350798.6185
-0.000294328376185149,0.000361425511073321,1713350798.66465
-0.00033762538805604,0.000354405696270987,1713350798.66641
-0.000274615129455924,0.000370392634067684,1713350798.71326
-0.000293318676995113,0.000363060273230076,1713350798.71466
-0.000329571805195883,0.000367844360880554,1713350798.7573
-0.000303704175166786,0.000358829129254445,1713350798.75881
-0.000336423370754346,0.00036284391535446,1713350798.78244
-0.000275119964499027,0.000371089816326275,1713350798.78296
-0.000267883762717247,0.000377532676793635,1713350798.84156
-0.000189800091902725,0.000387293141102418,1713350798.84276
-0.000258700281847268,0.000376787415007129,1713350798.86528
-0.000246343435719609,0.0003684934345074,1713350798.86676
-0.000207325647352263,0.000366714433766901,1713350798.91277
-0.000199392263311893,0.000378061580704525,1713350798.91403
-0.000161961143021472,0.000375224801246077,1713350798.94108
-0.000122270197607577,0.00036267563700676,1713350798.94247
-9.70757100731134E-05,0.000364598876331002,1713350799.01285
-7.98386463429779E-05,0.000344284606399015,1713350799.01424
-5.08217090100516E-05,0.000367652013665065,1713350799.03304
-5.71924501855392E-05,0.000339308229740709,1713350799.03452
-3.24787724821363E-05,0.000339764985255897,1713350799.06092
-3.76234493160155E-05,0.00035147272865288,1713350799.06221
-5.30093966517597E-05,0.000338130223099142,1713350799.14095
-5.0749586080201E-05,0.000306180358165875,1713350799.14252
-9.19550802791491E-05,0.000326542707625777,1713350799.16493
-0.000135444424813613,0.000317840022034943,1713350799.16628
-0.000160518698976375,0.000331663322867826,1713350799.21315
-0.000244227878283709,0.000312118354486302,1713350799.21411
-0.000310098956106231,0.000238097534747794,1713350799.24125
-0.000321277824696153,0.000323128944728523,1713350799.24268
-0.000339236110448837,0.000300242332741618,1713350799.2614
-0.000356184697011486,0.000288510549580678,1713350799.26287
-0.000373878516256809,0.000287332572042942,1713350799.31692
-0.000386211322620511,0.000270552263827994,1713350799.31851
-0.000401260709622875,0.000265143142314628,1713350799.33274
-0.000410780747188255,0.000270263786660507,1713350799.33423
-0.000461914984043688,0.000300122133921832,1713350799.39313
-0.000467636651592329,0.000360439851647243,1713350799.39437
-0.00049232627497986,0.000347746448824182,1713350799.41262
-0.000529084296431392,0.000375080562662333,1713350799.41359
-0.00062911695567891,0.000406381324864924,1713350799.46479
-0.000687535502947867,0.000440302537754178,1713350799.46643
-0.000697872892487794,0.000422945275204256,1713350799.51329
-0.000701070297509432,0.000435326161095873,1713350799.51475
-0.000691502180416137,0.000475954671856016,1713350799.53343
-0.000682607176713645,0.000479320355225354,1713350799.53479
-0.000632987474091351,0.000468694430310279,1713350799.59304
-0.000626640801783651,0.000461289950180799,1713350799.59453
-0.000556202023290098,0.000553124817088246,1713350799.64115
-0.00065258052200079,0.000520862406119704,1713350799.66851
-0.00057620374718681,0.000485498778289184,1713350799.72076
-0.000681188772432506,0.000366401916835457,1713350799.72241
-0.000674745941068977,0.000440735282609239,1713350799.74539
-0.000877191312611103,0.00040200597140938,1713350799.74652
-0.000865435518790036,0.000344645231962204,1713350799.79698
-0.000860194675624371,0.000344404805218801,1713350799.79802
-0.000801559770479798,0.000358540652086958,1713350799.82138
-0.000730255560483784,0.0004372013208922,1713350799.82307
-0.000751218874938786,0.000465521065052599,1713350799.85674
-0.000741410360205919,0.000417584233218804,1713350799.85818
-0.000758406997192651,0.000378446216927841,1713350799.87667
-0.000817715015728027,0.000334259704686701,1713350799.87812
-0.000803723407443613,0.00034291431074962,1713350799.90069
-0.000783889961894602,0.000376210460672155,1713350799.90216
-0.000700421223882586,0.000360271573299542,1713350799.95324
-0.000609764305409044,0.00039186084177345,1713350799.95468
-0.000682559097185731,0.000347986846463755,1713350799.97655
-0.000638420635368675,0.000355824071448296,1713350799.97752
-0.000597623875364661,0.00036231501144357,1713350800.02875
-0.000611855881288648,0.000356665492290631,1713350800.02987
-0.0005545913008973,0.000421478791395202,1713350800.10064
-0.000593176344409585,0.000346376153174788,1713350800.10164
-0.000594210112467408,0.000347289693308994,1713350800.13337
-0.000522593327332288,0.000372916896594688,1713350800.13496
-0.000532353762537241,0.000380080979084596,1713350800.15289
-0.000508385361172259,0.000380898360162973,1713350800.15465
-0.000418353534769267,0.000342265208018944,1713350800.18936
-0.0004717716074083,0.000365993211744353,1713350800.20608
-0.00049153296276927,0.000369575252989307,1713350800.23267
-0.000432152795838192,0.000389697204809636,1713350800.23368
-0.000470353232230991,0.000409915286581963,1713350800.25749
-0.00048429673188366,0.000433523120591417,1713350800.25883
-0.000383182225050405,0.000395779468817636,1713350800.30853
-0.000395346723962575,0.000411958753829822,1713350800.30969
-0.000432946137152612,0.000387918204069138,1713350800.33713
-0.000440591044025496,0.000353948911651969,1713350800.33864
-0.000311036536004394,0.000383061997126788,1713350800.38858
-0.000402823323383927,0.000381234916858375,1713350800.39051
-0.000422103854361922,0.000310387462377548,1713350800.44077
-0.00042979684076272,0.000393327325582504,1713350800.44176
-0.000407968007493764,0.000393639842513949,1713350800.4614
-0.000390081841032952,0.000385345862014219,1713350800.46311
-0.000364310399163514,0.000394385104300454,1713350800.5167
-0.000365151820005849,0.000399986543925479,1713350800.51764
-0.000372436101315543,0.000382124417228624,1713350800.55682
-0.000361016835086048,0.000419675750890747,1713350800.5584
-0.000309738359646872,0.00041912283631973,1713350800.58147
-0.000309089256916195,0.000431792199378833,1713350800.58221
-0.000319210317684337,0.00040412152884528,1713350800.62061
-0.000305579334963113,0.000408737309044227,1713350800.62199
-0.000268725183559582,0.00040712658665143,1713350800.65698
-0.000271994707873091,0.000407270825235173,1713350800.65842
-0.000245237577473745,0.000409602769650519,1713350800.70922
-0.000234779945458285,0.000408136285841465,1713350800.71098
-0.000228288990911096,0.000405780330765992,1713350800.73679
-0.00020823918748647,0.000397943105781451,1713350800.76076
-0.00018953563994728,0.000398760486859828,1713350800.78068
-0.000165086414199322,0.00037827793858014,1713350800.78214
-0.000141983444336802,0.000354549934854731,1713350800.82899
-0.000138497562147677,0.000390490546124056,1713350800.8305
-0.000118015028419904,0.000328369787894189,1713350800.8526
-0.000191819490282796,0.000367724132956937,1713350800.85425
-0.000216196596738882,0.000332480703946203,1713350800.90096
-0.00028461599140428,0.00037404679460451,1713350800.90255
-0.000371378293493763,0.000352746894350275,1713350800.95293
-0.000377580756321549,0.000343395106028765,1713350800.95418
-0.000402751204092056,0.00033921207068488,1713350801.01313
-0.000419291114667431,0.000326710985973477,1713350801.01485
-0.000435758876847103,0.000328970781993121,1713350801.03308
-0.000447538739535958,0.00033118252758868,1713350801.0347
-0.000451649684691802,0.000337529229000211,1713350801.05353
-0.000453933520475403,0.000348443631082773,1713350801.0549
-0.000456145266070962,0.000356016389559954,1713350801.10531
-0.000470136845251545,0.0003583483339753,1713350801.10675
-0.000468045327579603,0.000363973813364282,1713350801.157
-0.000482469651615247,0.000369599292753264,1713350801.15833
-0.000554663420189172,0.000387725885957479,1713350801.17732
-0.000603874388616532,0.000425421458203346,1713350801.17898
-0.000706455379258841,0.000417656352510676,1713350801.22858
-0.000700445263646543,0.00045871760812588,1713350801.23011
-0.000706166902091354,0.000433066335972399,1713350801.28107
-0.000646257889457047,0.000487878773128614,1713350801.28265
-0.000688617292325944,0.000456626061350107,1713350801.32889
-0.000679193413816392,0.000488840392790735,1713350801.33067
-0.00056209194008261,0.000554639380425215,1713350801.35734
-0.000667101005092263,0.000437850394519046,1713350801.35861
-0.000656787655316293,0.000474584347102791,1713350801.40505
-0.000639598642010242,0.000446577119873837,1713350801.40649
-0.000540359294973314,0.000513001170475036,1713350801.43708
-0.000624284846708179,0.000305699533782899,1713350801.43856
-0.000568462652154267,0.000445302983280271,1713350801.45697
-0.000551778532098979,0.000453981600003317,1713350801.45843
-0.000721240299753845,0.000405515864258632,1713350801.5252
-0.000683087971992791,0.000166673082276247,1713350801.52658
-0.000602359825279564,0.000282211927697062,1713350801.55325
-0.000526752322912216,0.000336976285325363,1713350801.55472
-0.00057028973242268,0.000355631753336638,1713350801.57718
-0.000624068430624902,0.000370440713595599,1713350801.57872
-0.000632146082352847,0.000357362674549222,1713350801.63315
-0.000609115231782198,0.000352602655766532,1713350801.63444
-0.000700781820341945,0.000358300254447386,1713350801.65308
-0.000692151254042983,0.0003583483339753,1713350801.65459
-0.000586493057198823,0.000377027841750532,1713350801.70091
-0.000608225760515779,0.000453188287792727,1713350801.70242
-0.000667389540467411,0.000345606851624325,1713350801.73716
-0.000595892954152077,0.000366233638487756,1713350801.73852
-0.000527281255926937,0.000357579032424837,1713350801.78908
-0.00050458696205169,0.000383518781745806,1713350801.79027
-0.000457587681012228,0.000354477815562859,1713350801.81699
-0.00052874768152833,0.000358757009962574,1713350801.81852
-0.000526055169757456,0.00035385275259614,1713350801.91669
-0.00038022521766834,0.000387822045013309,1713350801.91807
-0.000440038100350648,0.000406549632316455,1713350801.94888
-0.000492566672619432,0.000379672303097323,1713350801.95007
-0.000505091797094792,0.000364478677511215,1713350801.97308
-0.000478502974146977,0.000384432321880013,1713350801.97474
-0.000461001443909481,0.000378013501176611,1713350801.98926
-0.000460953364381567,0.000415444636018947,1713350801.99022
-0.000427104299888015,0.000381595542421564,1713350802.00925
-0.000393327325582504,0.000388254760764539,1713350802.01059
-0.000376643176423386,0.000397702708141878,1713350802.06532
-0.000395707349525765,0.000381258956622332,1713350802.06681
-0.000377244199626148,0.000395298644434661,1713350802.10861
-0.000349934154655784,0.000411237531807274,1713350802.10975
-0.000375921983504668,0.000394048547605053,1713350802.16084
-0.000380850280635059,0.000396236224332824,1713350802.16233
-0.000364887353498489,0.000396644929423928,1713350802.20455
-0.0003339231479913,0.000377268239390105,1713350802.20569
-0.00039803926483728,0.000397173804230988,1713350802.22073
-0.000360343692591414,0.000412463588872924,1713350802.22303
-0.000401933823013678,0.000389673165045679,1713350802.28563
-0.000353900832124054,0.000400515447836369,1713350802.28803
-0.00036125723272562,0.000410876906244084,1713350802.30887
-0.000316325458697975,0.000403833051677793,1713350802.31043
-0.000343395106028765,0.000409554690122604,1713350802.33271
-0.000341159349773079,0.000417728471802548,1713350802.33367
-0.000367123138858005,0.000384023645892739,1713350802.38065
-0.000351520808180794,0.000404626363888383,1713350802.38204
-0.000324523280141875,0.00040924217319116,1713350802.43725
-0.000241871908656321,0.000416141789173707,1713350802.4388
-0.000272595701972023,0.000408160325605422,1713350802.46535
-0.000222399059566669,0.000401981931645423,1713350802.4667
-0.000170784012880176,0.000388398999348283,1713350802.50153
-0.000180304064997472,0.000398351781768724,1713350802.50311
-0.000124770420370623,0.000408256513765082,1713350802.55335
-9.00318336789496E-05,0.00040227040881291,1713350802.55498
-7.77471141191199E-05,0.000399337470298633,1713350802.57723
-6.14716700511053E-05,0.000391500245314091,1713350802.57885
-4.78887632198166E-05,0.000385321822250262,1713350802.64197
-3.14450298901647E-05,0.000368878099834546,1713350802.64333
-1.8679502318264E-05,0.000367555854609236,1713350802.6657
-1.17558256533812E-05,0.000362723716534674,1713350802.66706
-2.34154886129545E-05,0.000358011777279899,1713350802.69678
-2.55310569627909E-05,0.000350366870407015,1713350802.69852
-8.09925913927145E-05,0.000353612354956567,1713350802.73266
-0.00011525036097737,0.000392125308280811,1713350802.73412
-0.000129266001749784,0.000329187139868736,1713350802.79348
-0.000141262236866169,0.000317551544867456,1713350802.79485
-0.00015364310820587,0.000294713012408465,1713350802.84066
-0.000162417913088575,0.000285697809886187,1713350802.842
-0.000164076700457372,0.000274398742476478,1713350802.87262
-0.000160735071403906,0.000273100566118956,1713350802.87431
-0.00015306613931898,0.000276370090432465,1713350802.89735
-0.000159893650561571,0.000283173547359183,1713350802.89867
-0.000176505665876903,0.000289832794805989,1713350802.95676
-0.000204152296646498,0.000297501712338999,1713350802.97246
-0.000223504932364449,0.000299448991427198,1713350803.0007
-0.000257618463365361,0.000301708816550672,1713350803.00223
-0.000281875371001661,0.000314137781970203,1713350803.02873
-0.000305411056615412,0.000314546457957476,1713350803.03016
-0.000321686500683427,0.000316517776809633,1713350803.0646
-0.000365079671610147,0.00034952544956468,1713350803.06552
-0.000388350919820368,0.00035570387262851,1713350803.09347
-0.000437970622442663,0.000335605989675969,1713350803.0948
-0.000512856873683631,0.000391356006730348,1713350803.14463
-0.0005750497803092,0.000380465644411743,1713350803.14608
-0.000583632267080247,0.00036452675703913,1713350803.18074
-0.000540623732376844,0.000420541211497039,1713350803.18246
-0.00064481544541195,0.000348852307070047,1713350803.21339
-0.0005706503870897,0.000397582509322092,1713350803.21472
-0.00051314540905878,0.000382653321139514,1713350803.25659
-0.000582959153689444,0.000374239141819999,1713350803.25797
-0.000629020796623081,0.00036188229569234,1713350803.31288
-0.000543628819286823,0.000481195515021682,1713350803.31449
-0.000599715393036604,0.000400611606892198,1713350803.33656
-0.000615245546214283,0.000446649239165708,1713350803.33804
-0.000622073072008789,0.000444701960077509,1713350803.37311
-0.000594738987274468,0.000418882409576327,1713350803.37418
-0.00063212204258889,0.000386355561204255,1713350803.42527
-0.000678255863022059,0.000358805089490488,1713350803.42671
-0.000700445263646543,0.000426599435741082,1713350803.46515
-0.000723548233509064,0.000253555597737432,1713350803.46661
-0.000610028801020235,0.000295097677735612,1713350803.5052
-0.000618515070527792,0.000336711847921833,1713350803.52861
-0.000627866887953132,0.000286130554741248,1713350803.54873
-0.000650561123620719,0.000321878818795085,1713350803.55044
-0.000712826149538159,0.000420493131969124,1713350803.57306
-0.000693040783517063,0.000335221324348822,1713350803.5746
-0.000713619461748749,0.000377268239390105,1713350803.61742
-0.000722274067811668,0.000319090118864551,1713350803.61891
-0.000613610842265189,0.000348395551554859,1713350803.6696
-0.000638300436548889,0.000362867955118418,1713350803.67116
-0.000611158669926226,0.000355992349795997,1713350803.69269
-0.000626520602963865,0.000357146316673607,1713350803.69394
-0.000566395174246281,0.000293270597467199,1713350803.74132
-0.000590796349570155,0.000298415252473205,1713350803.74289
-0.000577501894440502,0.000326710985973477,1713350803.80537
-0.000587238348089159,0.000332264346070588,1713350803.8069
-0.000637026329059154,0.000332697061821818,1713350803.85313
-0.000590868468862027,0.000361930375220254,1713350803.85474
-0.000557981024030596,0.0003362069837749,1713350803.87747
-0.000507664168253541,0.000344597152434289,1713350803.87881
-0.000503865710925311,0.000386355561204255,1713350803.96912
-0.000501293397974223,0.000319498823955655,1713350803.97067
-0.000528867880348116,0.000326638866681606,1713350803.99321
