tibialis_anterior,gastrocnemius,t
0.375539869070053,0.0583518780767918,1713350763.70455
0.375755041837692,0.072153314948082,1713350763.70555
0.375633299350739,0.0849039405584335,1713350763.72856
0.382570296525955,0.0643980726599693,1713350763.72962
0.403333336114883,0.0642272904515266,1713350763.76448
0.403333336114883,0.0444497615098953,1713350763.76604
0.403333336114883,0.0612392425537109,1713350763.83266
0.403333336114883,0.0289766918867826,1713350763.83387
0.403333336114883,0.0435529537498951,1713350763.86872
0.403333336114883,0.0573289059102535,1713350763.86996
0.403333336114883,0.0437810979783535,1713350763.89633
0.403333336114883,0.066701352596283,1713350763.89792
0.403333336114883,0.04722610861063,1713350763.92875
0.403333336114883,0.0791959464550018,1713350763.93039
0.403333336114883,0.0797474309802055,1713350763.95639
0.403333336114883,0.0680548846721649,1713350763.95747
0.403333336114883,0.0707303062081337,1713350764.00492
0.403333336114883,0.0775958523154259,1713350764.00619
0.403333336114883,0.079599916934967,1713350764.03637
0.403333336114883,0.0841942131519318,1713350764.0379
0.390407115221024,0.0694342330098152,1713350764.05638
0.402235150337219,0.0644469708204269,1713350764.05836
0.386370897293091,0.074507363140583,1713350764.11268
0.37563568353653,0.072759710252285,1713350764.11441
0.375639677047729,0.0620427764952183,1713350764.16082
0.393232703208923,0.080099530518055,1713350764.16191
0.38266596198082,0.0685872361063957,1713350764.23263
0.403333336114883,0.0757139101624489,1713350764.23378
0.376377820968628,0.0815808102488518,1713350764.2529
0.378027141094208,0.0854633152484894,1713350764.25402
0.37371426820755,0.0761521682143211,1713350764.27659
0.399485111236572,0.0766327381134033,1713350764.27798
0.403333336114883,0.0319683440029621,1713350764.30835
0.403333336114883,0.037360493093729,1713350764.30923
0.403333336114883,0.0412964597344399,1713350764.36457
0.403333336114883,0.0463690161705017,1713350764.36564
0.403333336114883,0.0399511493742466,1713350764.41245
0.403333336114883,0.0421178787946701,1713350764.4139
0.403333336114883,0.029327780008316,1713350764.43646
0.403333336114883,0.0747595503926277,1713350764.43774
0.403333336114883,0.0827152356505394,1713350764.46035
0.403333336114883,0.0860288888216019,1713350764.46184
0.403333336114883,0.0702312737703323,1713350764.517
0.403333336114883,0.0883517861366272,1713350764.51849
0.403333336114883,0.0574606470763683,1713350764.54045
0.403333336114883,0.0600869320333004,1713350764.54159
0.393296152353287,0.081839919090271,1713350764.577
0.398081690073013,0.0860292240977287,1713350764.57813
0.396741330623627,0.0751229003071785,1713350764.65621
0.403333336114883,0.0836706608533859,1713350764.65735
0.403333336114883,0.0517973192036152,1713350764.70467
0.403333336114883,0.0567714050412178,1713350764.70582
0.403333336114883,0.0467616431415081,1713350764.74443
0.403333336114883,0.0417272187769413,1713350764.7723
0.403333336114883,0.0453296937048435,1713350764.81684
0.403333336114883,0.0493274442851543,1713350764.81805
0.403333336114883,0.0638813003897667,1713350764.87288
0.399836480617523,0.0816157683730125,1713350764.87408
0.397295594215393,0.036392766982317,1713350764.89238
0.403333336114883,0.0454069599509239,1713350764.8932
0.403333336114883,0.0583530329167843,1713350764.92073
0.403333336114883,0.0185660310089588,1713350764.92201
0.403333336114883,0.0440573245286942,1713350764.94453
0.403333336114883,0.0414314232766628,1713350764.94573
0.403333336114883,0.0830845460295677,1713350764.97306
0.403333336114883,0.0842989310622215,1713350764.97462
0.403333336114883,0.0651713609695435,1713350764.98085
0.403333336114883,0.0906756892800331,1713350764.982
0.403333336114883,0.0770669132471085,1713350765.03641
0.403333336114883,0.0718755945563316,1713350765.03775
0.403333336114883,0.0114863310009241,1713350765.07651
0.403333336114883,0.0663356482982636,1713350765.07777
0.403333336114883,0.0776785016059876,1713350765.14904
0.403333336114883,0.077472910284996,1713350765.15036
0.403333336114883,0.0422062501311302,1713350765.17227
0.403333336114883,0.0495734252035618,1713350765.17306
0.403333336114883,0.0218970403075218,1713350765.23707
0.403333336114883,0.0474432408809662,1713350765.23838
0.403333336114883,0.0501604005694389,1713350765.26552
0.403333336114883,0.0757314637303352,1713350765.26627
0.403333336114883,0.0688161477446556,1713350765.28897
0.403333336114883,0.0805328860878944,1713350765.31679
0.403333336114883,0.0788912549614906,1713350765.34422
0.403333336114883,0.0720935985445976,1713350765.34554
0.382320553064346,0.0872510671615601,1713350765.36846
0.381591737270355,0.0801897794008255,1713350765.36976
0.395076960325241,0.0996103584766388,1713350765.42079
0.403333336114883,0.0318239107728004,1713350765.42178
0.403333336114883,0.0180641114711761,1713350765.4848
0.403333336114883,0.0229211673140526,1713350765.48602
0.403333336114883,0.0254368167370558,1713350765.5087
0.403333336114883,0.0325526259839535,1713350765.51008
0.403333336114883,0.0326505191624165,1713350765.53676
0.403333336114883,0.0439840964972973,1713350765.53787
0.403333336114883,0.0561347156763077,1713350765.55641
0.403333336114883,0.061789195984602,1713350765.55741
0.403333336114883,0.060706552118063,1713350765.58022
0.403333336114883,0.0672212541103363,1713350765.58167
0.403333336114883,0.0776384025812149,1713350765.63693
0.403333336114883,0.0726866275072098,1713350765.63809
0.403333336114883,0.081965796649456,1713350765.66107
0.403333336114883,0.0563392043113709,1713350765.66233
0.388926029205322,0.0751889124512672,1713350765.7086
0.375980585813522,0.0648840814828873,1713350765.70967
0.38684219121933,0.0666941404342651,1713350765.73247
0.403333336114883,0.156616881489754,1713350765.73335
0.403333336114883,0.0732118710875511,1713350765.78815
0.403333336114883,0.116003982722759,1713350765.78895
0.403333336114883,0.152529403567314,1713350765.83656
0.403333336114883,0.166224241256714,1713350765.86044
0.403333336114883,0.151501715183258,1713350765.89222
0.403333336114883,0.13661216199398,1713350765.89291
0.403333336114883,0.135713577270508,1713350765.91335
0.403333336114883,0.149195462465286,1713350765.91451
0.403333336114883,0.137564897537231,1713350765.93717
0.403333336114883,0.0382322035729885,1713350765.9387
0.403333336114883,0.0378429889678955,1713350765.98857
0.403333336114883,0.0344253852963448,1713350765.98938
0.403333336114883,0.0444744266569614,1713350766.01631
0.403333336114883,0.0314036309719086,1713350766.01709
0.403333336114883,0.0414783507585526,1713350766.06972
0.403333336114883,0.0662883371114731,1713350766.07037
0.403333336114883,0.0612984336912632,1713350766.16878
0.403333336114883,0.0627084076404572,1713350766.16994
0.403333336114883,0.0597412288188934,1713350766.1887
0.403333336114883,0.0408282466232777,1713350766.18977
0.403333336114883,0.0621519684791565,1713350766.22097
0.401536732912064,0.0265724454075098,1713350766.22198
0.403333336114883,0.0737043619155884,1713350766.24448
0.403333336114883,0.0418465547263622,1713350766.2456
0.403333336114883,0.0269895009696484,1713350766.26904
0.403333336114883,0.111584037542343,1713350766.2702
0.403333336114883,0.110081791877747,1713350766.29254
0.403333336114883,0.0992671549320221,1713350766.29343
0.403333336114883,0.0844446644186974,1713350766.34443
0.403333336114883,0.103226147592068,1713350766.34771
0.403333336114883,0.076843723654747,1713350766.41657
0.403333336114883,0.0941539704799652,1713350766.41771
0.403333336114883,0.0673501119017601,1713350766.44102
0.403333336114883,0.0579951666295528,1713350766.44213
0.403333336114883,0.0564192123711109,1713350766.46468
0.403333336114883,0.0594524554908276,1713350766.46603
0.381250709295273,0.0627272129058838,1713350766.54063
0.377977728843689,0.0581889785826206,1713350766.54174
0.3737812936306,0.0658831596374512,1713350766.57276
0.373999744653702,0.0503143556416035,1713350766.57358
0.374214649200439,0.0356056801974773,1713350766.59265
0.376091063022614,0.0290569383651018,1713350766.59388
0.374939054250717,0.0299981739372015,1713350766.62091
0.37390872836113,0.024536594748497,1713350766.62223
0.375801622867584,0.0188580751419067,1713350766.66907
0.373911172151566,-0.0301714111119509,1713350766.67077
0.374083697795868,0.0392078645527363,1713350766.72052
0.373506486415863,0.0417987145483494,1713350766.72217
0.374265730381012,0.0356713086366653,1713350766.74435
0.375608384609222,0.0145462593063712,1713350766.74541
0.374435395002365,0.0577896684408188,1713350766.79674
0.375103920698166,0.0332667268812656,1713350766.7978
0.373047024011612,0.046223234385252,1713350766.87647
0.376380860805511,0.0423012115061283,1713350766.87747
0.374552190303802,0.0165633577853441,1713350766.90058
0.374794125556946,0.0798132047057152,1713350766.90162
0.375037223100662,0.0736438781023026,1713350766.92448
0.373518913984299,0.031731978058815,1713350766.92527
0.374227255582809,0.0199982225894928,1713350766.97671
0.372737616300583,0.0770344585180283,1713350766.97787
0.372313290834427,0.0666550993919373,1713350767.00481
0.373651772737503,0.072229765355587,1713350767.00614
0.375316232442856,0.0505254790186882,1713350767.02444
0.372181355953217,0.0645716488361359,1713350767.02549
0.374434381723404,0.0838281214237213,1713350767.07646
0.374715566635132,0.0523308776319027,1713350767.07755
0.376083076000214,0.0136335361748934,1713350767.10843
0.37559112906456,0.0741613730788231,1713350767.10957
0.373531579971313,0.0962863191962242,1713350767.16443
0.375555783510208,0.0389935672283173,1713350767.16572
0.370268255472183,0.0589525066316128,1713350767.1845
0.374228060245514,0.0853087827563286,1713350767.18563
0.373955398797989,0.0669928640127182,1713350767.22048
0.373985022306442,0.0799050405621529,1713350767.22216
0.373566031455994,0.0614485405385494,1713350767.2685
0.375863254070282,0.0671262890100479,1713350767.26956
0.373231172561645,0.0753119513392448,1713350767.29693
0.375511020421982,0.103826925158501,1713350767.29876
0.375230610370636,0.0934873223304749,1713350767.33695
0.374464213848114,0.0857794433832169,1713350767.33841
0.374916732311249,0.102452762424946,1713350767.44495
0.373295545578003,0.129009589552879,1713350767.44603
0.37480491399765,0.11863998323679,1713350767.48023
0.375055968761444,0.116089999675751,1713350767.48144
0.37532514333725,0.138366356492043,1713350767.50844
0.37478119134903,0.168209701776505,1713350767.50945
0.374480158090591,0.132830440998077,1713350767.56038
0.375273466110229,0.124084301292896,1713350767.56169
0.374566227197647,0.154372975230217,1713350767.5688
0.374985307455063,0.165610924363136,1713350767.56993
0.373724669218063,0.143624603748322,1713350767.58908
0.374231487512588,0.154272302985191,1713350767.5901
0.376219242811203,0.156744047999382,1713350767.62042
0.374058783054352,0.152157843112946,1713350767.62158
0.376203775405884,0.153319478034973,1713350767.66842
0.375367850065231,0.148453772068024,1713350767.66933
0.37305960059166,0.148351833224297,1713350767.72153
0.375273734331131,0.157943293452263,1713350767.72214
0.373730003833771,0.167689993977547,1713350767.74475
0.373688459396362,0.127712398767471,1713350767.74606
0.375185757875442,0.114892162382603,1713350767.77289
0.375157922506332,0.0823994427919388,1713350767.77402
0.373368293046951,0.0624076165258884,1713350767.82465
0.371518135070801,0.0314355567097664,1713350767.82583
0.375310331583023,0.113706283271313,1713350767.87642
0.374259233474731,0.112663552165031,1713350767.87766
0.374297261238098,0.0488951951265335,1713350767.90843
0.376440763473511,0.120794735848904,1713350767.90952
0.373099505901337,0.135913982987404,1713350767.95734
0.374292075634003,0.119834795594215,1713350767.95823
0.373455464839935,0.139175459742546,1713350767.96937
0.374558925628662,0.151789963245392,1713350767.97
0.373270928859711,0.130194932222366,1713350768.05227
0.374152839183807,0.143192827701569,1713350768.08088
0.375258356332779,0.117118507623672,1713350768.10025
0.373848378658295,0.152010515332222,1713350768.10151
0.372993588447571,0.124661944806576,1713350768.10814
0.374003976583481,0.0811961144208908,1713350768.1089
0.372440844774246,0.0999249517917633,1713350768.12885
0.374780535697937,0.106909446418285,1713350768.1302
0.372682601213455,0.0780982971191406,1713350768.18447
0.373853415250778,0.1032794713974,1713350768.18612
0.374476701021194,0.0862592458724976,1713350768.22059
0.37199342250824,0.0935854613780975,1713350768.22175
0.372823238372803,0.0853557586669922,1713350768.29709
0.374130934476852,0.0818979069590569,1713350768.29808
0.374064296483994,0.0832408145070076,1713350768.36505
0.374095320701599,0.0892784968018532,1713350768.36607
0.37522166967392,0.0767590999603272,1713350768.37282
0.373794823884964,0.0769092068076134,1713350768.37359
0.370911687612534,0.0939020738005638,1713350768.38057
0.374686419963837,0.0777556747198105,1713350768.38171
0.374366968870163,0.084726519882679,1713350768.43285
0.372918874025345,0.0690173208713532,1713350768.43402
0.374823451042175,0.0730143040418625,1713350768.45654
0.374536365270615,0.0848749428987503,1713350768.45788
0.373659670352936,0.0997427701950073,1713350768.49279
0.375809401273727,0.109946876764297,1713350768.49401
0.373040080070496,0.115826517343521,1713350768.53686
0.37195897102356,0.103662870824337,1713350768.53811
0.372086495161057,0.116279102861881,1713350768.57233
0.375450164079666,0.123527713119984,1713350768.58068
0.373352229595184,0.128345876932144,1713350768.62474
0.375823199748993,0.111254535615444,1713350768.6259
0.374760180711746,0.139669835567474,1713350768.65631
0.3735331594944,0.117337465286255,1713350768.65791
0.372946798801422,0.115496344864368,1713350768.69285
0.374667674303055,0.149341002106667,1713350768.69406
0.37482875585556,0.141324400901794,1713350768.75273
0.372305363416672,0.108554735779762,1713350768.75384
0.375104010105133,0.119857974350452,1713350768.80469
0.375040262937546,0.120499566197395,1713350768.80587
0.374005854129791,0.0880661830306053,1713350768.83349
0.37364387512207,0.152073159813881,1713350768.83406
0.37612909078598,0.144071564078331,1713350768.86074
0.375237882137299,0.130241423845291,1713350768.86263
0.374834477901459,0.14815229177475,1713350768.89288
0.375028818845749,0.140486150979996,1713350768.8942
0.374808460474014,0.130141213536263,1713350768.93648
0.372579425573349,0.140166372060776,1713350768.93852
0.374297946691513,0.141394883394241,1713350768.98435
0.373377770185471,0.142727494239807,1713350768.98554
0.374428391456604,0.145582988858223,1713350769.02475
0.373317807912827,0.141507014632225,1713350769.026
0.374400407075882,0.143976986408234,1713350769.06476
0.373738169670105,0.155756950378418,1713350769.06593
0.374476552009583,0.164470627903938,1713350769.09248
0.373468816280365,0.155209586024284,1713350769.0938
0.374525398015976,0.156860411167145,1713350769.14882
0.374802678823471,0.0975501760840416,1713350769.16116
0.375707060098648,0.14755642414093,1713350769.18884
0.37549039721489,0.163992136716843,1713350769.19012
0.376762568950653,0.176235646009445,1713350769.21238
0.374512374401093,0.180178284645081,1713350769.21365
0.373223602771759,0.180013805627823,1713350769.2684
0.374164313077927,0.180036067962646,1713350769.26959
0.374485731124878,0.184074729681015,1713350769.32444
0.374470978975296,0.17884024977684,1713350769.32509
0.372750967741013,0.184988424181938,1713350769.34451
0.376437336206436,0.174427554011345,1713350769.34523
0.374797463417053,0.178992375731468,1713350769.405
0.375509530305862,0.171267911791801,1713350769.4059
0.37387889623642,0.169290289282799,1713350769.43256
0.375058829784393,0.173833757638931,1713350769.43363
0.374717772006989,0.150531113147736,1713350769.47705
0.374603003263473,0.126679912209511,1713350769.47911
0.375889211893082,0.118053682148457,1713350769.50071
0.37596121430397,0.153322175145149,1713350769.50199
0.373073637485504,0.124174021184444,1713350769.57298
0.373037397861481,0.13298411667347,1713350769.57413
0.374407947063446,0.148068398237228,1713350769.6021
0.373343050479889,0.144030213356018,1713350769.60248
0.376651018857956,0.178090319037437,1713350769.62483
0.374942749738693,0.183577433228493,1713350769.62591
0.374005317687988,0.189078107476234,1713350769.66895
0.372898429632187,0.165295124053955,1713350769.67009
0.374460935592651,0.175305843353271,1713350769.70031
0.373617976903915,0.171796560287476,1713350769.70168
0.37335342168808,0.146846085786819,1713350769.74454
0.374704301357269,0.161743476986885,1713350769.74573
0.37559986114502,0.153885871171951,1713350769.77241
0.373457998037338,0.165244311094284,1713350769.7735
0.374018967151642,0.161366283893585,1713350769.83222
0.371722370386124,0.167229667305946,1713350769.833
0.374836981296539,0.17339189350605,1713350769.88454
0.372019469738007,0.15616562962532,1713350769.88567
0.376095592975616,0.16755773127079,1713350769.90042
0.375209182500839,0.143520265817642,1713350769.90151
0.373132109642029,0.158032953739166,1713350769.93251
0.373290866613388,0.153335288167,1713350769.93316
0.374082326889038,0.170415997505188,1713350769.9887
0.372112542390823,0.168508768081665,1713350769.98986
0.372073471546173,0.150867000222206,1713350770.00874
0.372827649116516,0.151032119989395,1713350770.01005
0.372508406639099,0.158056035637856,1713350770.11681
0.373586773872375,0.155332967638969,1713350770.11789
0.371241509914398,0.136886894702911,1713350770.14478
0.370627045631409,0.149272441864014,1713350770.14583
0.375147253274918,0.145061075687408,1713350770.16454
0.372363775968552,0.162966087460518,1713350770.16584
0.370174825191498,0.16293540596962,1713350770.20848
0.374339818954468,0.167679235339165,1713350770.20949
0.37222421169281,0.166294828057289,1713350770.22042
0.37286439538002,0.156796172261238,1713350770.22176
0.373387336730957,0.166011199355125,1713350770.29282
0.373513638973236,0.173016950488091,1713350770.29412
0.374980002641678,0.12332908809185,1713350770.34064
0.374461710453033,0.178218126296997,1713350770.3417
0.374059796333313,0.174566701054573,1713350770.3567
0.372306644916534,0.158731818199158,1713350770.3577
0.372992426156998,0.175421580672264,1713350770.40891
0.374334245920181,0.170346915721893,1713350770.40999
0.375036090612411,0.1695876121521,1713350770.41697
0.37398824095726,0.164915040135384,1713350770.41787
0.373579740524292,0.1719109416008,1713350770.45647
0.376093178987503,0.159061938524246,1713350770.45762
0.372642010450363,0.156940653920174,1713350770.50502
0.374198108911514,0.171339064836502,1713350770.50621
0.375549972057343,0.16360829770565,1713350770.54088
0.374879390001297,0.170090734958649,1713350770.54221
0.372761249542236,0.169659733772278,1713350770.61256
0.374775141477585,0.171678856015205,1713350770.61371
0.372479110956192,0.147642254829407,1713350770.62874
0.374097049236298,0.179057613015175,1713350770.62928
0.374431878328323,0.186621353030205,1713350770.66441
0.375060707330704,0.177460789680481,1713350770.66552
0.376628756523132,0.179679214954376,1713350770.69712
0.375424772500992,0.177912801504135,1713350770.69828
0.374985158443451,0.177689373493195,1713350770.74871
0.374593257904053,0.180325031280518,1713350770.74976
0.375480622053146,0.174291670322418,1713350770.76878
0.375407457351685,0.178126618266106,1713350770.76969
0.373513489961624,0.17241108417511,1713350770.84511
0.373651385307312,0.179794892668724,1713350770.84622
0.374877840280533,0.17705038189888,1713350770.88084
0.376069635152817,0.167870357632637,1713350770.88208
0.373794674873352,0.188466891646385,1713350770.90082
0.374361723661423,0.137779086828232,1713350770.902
0.375836819410324,0.191118136048317,1713350770.93248
0.376448512077332,0.186845988035202,1713350770.93316
0.373981714248657,0.193029552698135,1713350770.98482
0.375121265649796,0.187139421701431,1713350770.98615
0.375621616840363,0.193559840321541,1713350771.07685
0.373774707317352,0.18456843495369,1713350771.07793
0.375824749469757,0.19366118311882,1713350771.08498
0.375637620687485,0.187093645334244,1713350771.08602
0.374403804540634,0.189882889389992,1713350771.10485
0.375419467687607,0.190020829439163,1713350771.10622
0.373274922370911,0.183778405189514,1713350771.14848
0.374377459287643,0.168116673827171,1713350771.14937
0.374560594558716,0.151973307132721,1713350771.18046
0.37525874376297,0.147500842809677,1713350771.18178
0.374283075332642,0.134923994541168,1713350771.22951
0.377092123031616,0.135755077004433,1713350771.23091
0.374343574047089,0.100529134273529,1713350771.25225
0.374295234680176,0.124498330056667,1713350771.25301
0.375205934047699,0.143079027533531,1713350771.31262
0.373380213975906,0.120360612869263,1713350771.31429
0.374437272548676,0.171809107065201,1713350771.33256
0.375460594892502,0.170025438070297,1713350771.37268
0.373849391937256,0.166656404733658,1713350771.39318
0.374480783939362,0.172284677624702,1713350771.39348
0.373358428478241,0.170742139220238,1713350771.4167
0.3736891746521,0.164871156215668,1713350771.41789
0.373624116182327,0.167075470089912,1713350771.46854
0.376161456108093,0.150762140750885,1713350771.46978
0.375015437602997,0.159748584032059,1713350771.49658
0.371005594730377,0.143947467207909,1713350771.49775
0.372997581958771,0.157620429992676,1713350771.56513
0.3725206553936,0.158202305436134,1713350771.56642
0.373708456754684,0.146254301071167,1713350771.61282
0.373822689056396,0.148526757955551,1713350771.61388
0.371624916791916,0.139109060168266,1713350771.6249
0.371024489402771,0.148559778928757,1713350771.62589
0.370096117258072,0.156108126044273,1713350771.66446
0.375765740871429,0.118151769042015,1713350771.66548
0.372637897729874,0.15785314142704,1713350771.69244
0.374040693044662,0.141244158148766,1713350771.69385
0.373909056186676,0.14233386516571,1713350771.78865
0.374964326620102,0.126202747225761,1713350771.78966
0.375563561916351,0.150702476501465,1713350771.82094
0.373292356729507,0.124700650572777,1713350771.82265
0.373325020074844,0.161958441138268,1713350771.865
0.372600197792053,0.149760469794273,1713350771.86606
0.37300518155098,0.138170376420021,1713350771.88876
0.372610807418823,0.15570156276226,1713350771.8898
0.374925196170807,0.141168564558029,1713350771.91679
0.37148916721344,0.168518245220184,1713350771.94047
0.37277540564537,0.143215194344521,1713350771.9926
0.373511701822281,0.148381546139717,1713350771.99391
0.373699575662613,0.145351812243462,1713350772.01632
0.37248420715332,0.152220919728279,1713350772.01746
0.374214559793472,0.165006399154663,1713350772.04078
0.373074799776077,0.154431596398354,1713350772.04182
0.373511582612991,0.152611345052719,1713350772.06869
0.375871926546097,0.150302290916443,1713350772.0698
0.374719351530075,0.166879445314407,1713350772.09685
0.375868082046509,0.15008482336998,1713350772.09818
0.373891830444336,0.162679180502892,1713350772.17292
0.375380486249924,0.140413880348206,1713350772.17395
0.374782264232635,0.175723344087601,1713350772.19667
0.372938573360443,0.165045201778412,1713350772.19771
0.373429268598557,0.166439980268478,1713350772.22435
0.374655067920685,0.172191113233566,1713350772.22511
0.375459372997284,0.163153648376465,1713350772.24443
0.372904866933823,0.160063803195953,1713350772.24585
0.376836389303207,0.157094895839691,1713350772.30039
0.373867601156235,0.148633822798729,1713350772.30112
0.374979585409164,0.16855862736702,1713350772.34863
0.373576372861862,0.16553495824337,1713350772.34963
0.37327516078949,0.163676723837852,1713350772.37706
0.372552096843719,0.167851835489273,1713350772.37821
0.373621881008148,0.17392298579216,1713350772.45311
0.375773578882217,0.178854241967201,1713350772.45376
0.374319076538086,0.165415376424789,1713350772.48132
0.371806383132935,0.182004168629646,1713350772.50844
0.372938841581345,0.176126301288605,1713350772.53236
0.374362617731094,0.194446831941605,1713350772.53359
0.374719947576523,0.176324501633644,1713350772.55634
0.373376846313477,0.189370959997177,1713350772.55755
0.375226676464081,0.186971470713615,1713350772.60101
0.373563647270203,0.186735823750496,1713350772.6023
0.375677287578583,0.184808596968651,1713350772.63238
0.375765800476074,0.17703340947628,1713350772.63362
0.375604838132858,0.186960563063622,1713350772.67656
0.376690745353699,0.183955684304237,1713350772.67761
0.374239563941956,0.179674744606018,1713350772.70446
0.370965391397476,0.184013724327087,1713350772.70571
0.372482061386108,0.192008927464485,1713350772.74447
0.374460935592651,0.196877047419548,1713350772.74609
0.374830961227417,0.199433654546738,1713350772.80455
0.372974395751953,0.184216722846031,1713350772.8056
0.373179852962494,0.186905220150948,1713350772.83276
0.372580528259277,0.177357524633408,1713350772.83384
0.376442968845367,0.15976157784462,1713350772.86078
0.375630408525467,0.137249529361725,1713350772.86219
0.37412104010582,0.165237575769424,1713350772.91322
0.372557699680328,0.138619601726532,1713350772.91425
0.372114956378937,0.147450268268585,1713350772.95681
0.372146785259247,0.162824720144272,1713350772.9585
0.371497273445129,0.0962460711598396,1713350772.98046
0.369559347629547,0.143925920128822,1713350772.98146
0.373464643955231,0.152324676513672,1713350773.06446
0.373455733060837,0.137029841542244,1713350773.06558
0.362366527318954,0.169286966323853,1713350773.08063
0.372082889080048,0.150149345397949,1713350773.08151
0.370806962251663,0.143322989344597,1713350773.11271
0.370432496070862,0.137495368719101,1713350773.11369
0.367478400468826,0.137618601322174,1713350773.13669
0.364131808280945,0.153352409601212,1713350773.13765
0.372220695018768,0.119799457490444,1713350773.18043
0.370589107275009,0.130673140287399,1713350773.18157
0.371751606464386,0.0925534963607788,1713350773.22072
0.367179661989212,0.120262481272221,1713350773.22203
0.366943359375,0.154068768024445,1713350773.26861
0.372085005044937,0.14379845559597,1713350773.26952
0.372084677219391,0.121312089264393,1713350773.29683
0.372789353132248,0.121681734919548,1713350773.29814
0.369025617837906,0.140043273568153,1713350773.34476
0.369121581315994,0.0989731326699257,1713350773.34627
0.372779279947281,0.132610708475113,1713350773.41698
0.371411770582199,0.13726207613945,1713350773.41759
0.369306892156601,0.133311972022057,1713350773.44429
0.370095014572144,0.147390842437744,1713350773.44558
0.36956450343132,0.0772592350840569,1713350773.47264
0.369509726762772,0.156909793615341,1713350773.47373
0.36871811747551,0.143574595451355,1713350773.56441
0.369383275508881,0.105543799698353,1713350773.56567
0.370013475418091,0.144467934966087,1713350773.60499
0.368269681930542,0.147374585270882,1713350773.60617
0.367101460695267,0.118403568863869,1713350773.66073
0.371447056531906,0.134554296731949,1713350773.66222
0.369277536869049,0.139783829450607,1713350773.72531
0.36787012219429,0.135951727628708,1713350773.72602
0.368423253297806,0.160655781626701,1713350773.74043
0.370368599891663,0.145221665501595,1713350773.74161
0.36703485250473,0.146099239587784,1713350773.77228
0.370093256235123,0.153302028775215,1713350773.77309
0.364728361368179,0.141110673546791,1713350773.82455
0.371461540460587,0.162481427192688,1713350773.82559
0.370119154453278,0.152044653892517,1713350773.87271
0.368150681257248,0.1540247797966,1713350773.87397
0.369108438491821,0.167462050914764,1713350773.89645
0.365971773862839,0.157643407583237,1713350773.89758
0.366781890392303,0.163818418979645,1713350773.94888
0.36748194694519,0.161874011158943,1713350773.95014
0.365293443202972,0.168685421347618,1713350773.98059
0.368963152170181,0.175761327147484,1713350773.98167
0.367046236991882,0.169039726257324,1713350774.00474
0.366069376468658,0.180789828300476,1713350774.00614
0.370541900396347,0.172417625784874,1713350774.02842
0.37188708782196,0.182416558265686,1713350774.02961
0.370706409215927,0.175874412059784,1713350774.07655
0.372959583997726,0.179594203829765,1713350774.07758
0.372476994991302,0.195766851305962,1713350774.10474
0.371598720550537,0.18913958966732,1713350774.10565
0.373477876186371,0.175381824374199,1713350774.16917
0.373568892478943,0.106252416968346,1713350774.17036
0.372432231903076,0.184539869427681,1713350774.21644
0.373290210962296,0.153655469417572,1713350774.21738
0.374422371387482,0.169092953205109,1713350774.24867
0.373415887355804,0.194744318723679,1713350774.24967
0.372717082500458,0.191523551940918,1713350774.26454
0.372172504663467,0.194117575883865,1713350774.26582
0.372672319412231,0.193987846374512,1713350774.29633
0.370098292827606,0.189126178622246,1713350774.29721
0.370823919773102,0.192643404006958,1713350774.31648
0.368560761213303,0.195596307516098,1713350774.31746
0.370567798614502,0.19811624288559,1713350774.34058
0.373129427433014,0.19001992046833,1713350774.34154
0.370642274618149,0.193088009953499,1713350774.37233
0.372897386550903,0.185984462499619,1713350774.37345
0.376089572906494,0.177716881036758,1713350774.4164
0.367825657129288,0.178978770971298,1713350774.41809
0.372388631105423,0.156114384531975,1713350774.47274
0.371120691299438,0.0770834013819695,1713350774.47395
0.368952602148056,0.108956597745419,1713350774.49276
0.364446401596069,0.127738177776337,1713350774.49414
0.368796318769455,0.107433535158634,1713350774.59285
0.367428541183472,0.110559426248074,1713350774.59421
0.371984094381332,0.147674039006233,1713350774.61304
0.368320882320404,0.142888471484184,1713350774.61443
0.368203788995743,0.145669534802437,1713350774.63693
0.373233646154404,0.183741539716721,1713350774.63792
0.36726588010788,0.182363525032997,1713350774.66103
0.373031765222549,0.13801497220993,1713350774.68848
0.367426335811615,0.0787004679441452,1713350774.72064
0.37099152803421,0.174102380871773,1713350774.72209
0.368946313858032,0.150865033268929,1713350774.74426
0.367504507303238,0.15144956111908,1713350774.74521
0.368888854980469,0.156215399503708,1713350774.76838
0.368141680955887,0.158358082175255,1713350774.76974
0.367712736129761,0.0930087715387344,1713350774.84495
0.36966872215271,0.171706646680832,1713350774.84598
0.370059818029404,0.181122362613678,1713350774.86462
0.367439806461334,0.178902074694633,1713350774.8658
0.367842078208923,0.149752393364906,1713350774.9047
0.370629549026489,0.143209710717201,1713350774.90589
0.371741861104965,0.174244314432144,1713350774.92832
0.369791060686111,0.162929147481918,1713350774.92965
0.370931923389435,0.158196911215782,1713350774.97268
0.368120223283768,0.168335393071175,1713350774.97378
0.365415871143341,0.151585385203362,1713350775.03741
0.365611612796783,0.165594577789307,1713350775.03871
0.368514776229858,0.170694679021835,1713350775.05253
0.372272044420242,0.133334904909134,1713350775.05368
0.372173756361008,0.146226316690445,1713350775.10854
0.369638115167618,0.146607264876366,1713350775.10972
0.365932196378708,0.142783656716347,1713350775.16467
0.36834779381752,0.162299007177353,1713350775.1661
0.369554102420807,0.159997940063477,1713350775.17682
0.368688315153122,0.155475288629532,1713350775.17811
0.370868027210236,0.155154928565025,1713350775.20892
0.369429737329483,0.174483045935631,1713350775.23654
0.367393434047699,0.159192189574242,1713350775.26077
0.36997726559639,0.163633346557617,1713350775.2623
0.369143456220627,0.166868776082993,1713350775.33634
0.368638306856155,0.149437978863716,1713350775.33749
0.37069645524025,0.17446856200695,1713350775.3933
0.370288252830505,0.152735725045204,1713350775.39408
0.371611922979355,0.153473094105721,1713350775.44901
0.368039220571518,0.152500361204147,1713350775.45014
0.371665775775909,0.151837229728699,1713350775.50047
0.369297176599503,0.150154396891594,1713350775.50141
0.37337002158165,0.163881212472916,1713350775.52068
0.368561655282974,0.155540242791176,1713350775.52204
0.370560348033905,0.16223207116127,1713350775.58459
0.372322529554367,0.159554585814476,1713350775.58582
0.370879262685776,0.155500620603561,1713350775.67634
0.367993295192718,0.162888288497925,1713350775.67759
0.369028627872467,0.162242129445076,1713350775.74457
0.372942864894867,0.153753742575645,1713350775.74598
0.369864761829376,0.164970442652702,1713350775.78079
0.370294749736786,0.175325810909271,1713350775.78284
0.372023850679398,0.183736965060234,1713350775.80031
0.370587080717087,0.153414815664291,1713350775.80109
0.373422414064407,0.174537509679794,1713350775.81348
0.373132109642029,0.191027253866196,1713350775.81475
0.374775320291519,0.177603214979172,1713350775.85263
0.373954147100449,0.190622895956039,1713350775.85402
0.375296711921692,0.173310622572899,1713350775.88068
0.374746382236481,0.17243430018425,1713350775.92902
0.373361736536026,0.188403710722923,1713350775.95646
0.373242348432541,0.181434169411659,1713350775.9573
0.37483611702919,0.159019485116005,1713350775.98049
0.37444669008255,0.16583925485611,1713350775.98174
0.372837752103806,0.170787766575813,1713350775.98293
0.373854428529739,0.175060540437698,1713350775.98418
0.374160319566727,0.174823880195618,1713350776.03652
0.376749157905579,0.184077426791191,1713350776.03763
0.375672847032547,0.195899605751038,1713350776.07298
0.373198717832565,0.183600023388863,1713350776.0736
0.371424227952957,0.191732421517372,1713350776.09674
0.375088304281235,0.189976885914803,1713350776.09798
0.374899178743362,0.188716620206833,1713350776.12085
0.375047385692596,0.188086479902267,1713350776.12197
0.374714523553848,0.186375319957733,1713350776.15261
0.374863117933273,0.180398881435394,1713350776.15395
0.375104397535324,0.190472781658173,1713350776.18038
0.373941510915756,0.191622510552406,1713350776.18117
0.374736398458481,0.177774235606194,1713350776.20509
0.376463264226913,0.137012675404549,1713350776.20629
0.3750079870224,0.150569424033165,1713350776.22482
0.373939961194992,0.157107546925545,1713350776.22592
0.373766124248505,0.063857838511467,1713350776.25244
0.370584040880203,0.118161097168922,1713350776.2537
0.37209740281105,0.118983574211597,1713350776.3004
0.372650593519211,0.160105258226395,1713350776.30149
0.372867435216904,0.162784859538078,1713350776.40439
0.371435344219208,0.174445584416389,1713350776.40554
0.371277868747711,0.170460239052773,1713350776.42896
0.372591972351074,0.17491614818573,1713350776.43041
0.370894283056259,0.146932631731033,1713350776.45251
0.372746348381042,0.159919127821922,1713350776.45372
0.371734648942947,0.17652153968811,1713350776.48077
0.369244754314423,0.167124852538109,1713350776.48173
0.367447733879089,0.176767364144325,1713350776.5564
0.371370553970337,0.177789285778999,1713350776.55739
0.369546711444855,0.164378851652145,1713350776.62453
0.369918763637543,0.1529620885849,1713350776.6268
0.371206611394882,0.168582439422607,1713350776.64826
0.36596417427063,0.164345860481262,1713350776.64904
0.367073744535446,0.160292387008667,1713350776.72431
0.370050936937332,0.14024156332016,1713350776.72519
0.368701547384262,0.170855656266212,1713350776.75666
0.367201685905457,0.183000892400742,1713350776.7575
0.37096044421196,0.18334636092186,1713350776.7806
0.366488605737686,0.171112313866615,1713350776.7818
0.370504975318909,0.13709744811058,1713350776.80434
0.366405516862869,0.175543606281281,1713350776.80543
0.365851521492004,0.175274789333344,1713350776.83751
0.364687591791153,0.173395156860352,1713350776.83844
0.366813957691193,0.177516385912895,1713350776.90878
0.36762073636055,0.178122773766518,1713350776.90989
0.36728447675705,0.161767274141312,1713350776.93254
0.368903040885925,0.156340211629868,1713350776.93366
0.368957132101059,0.158259615302086,1713350776.98845
0.366365373134613,0.165086939930916,1713350776.98979
0.368369668722153,0.164896681904793,1713350777.02883
0.367449373006821,0.17193877696991,1713350777.0302
0.369707405567169,0.169365867972374,1713350777.06954
0.365571856498718,0.181401193141937,1713350777.06989
0.370241522789001,0.171083748340607,1713350777.09238
0.366292715072632,0.176920175552368,1713350777.09375
0.368794471025467,0.177112638950348,1713350777.13647
0.369610548019409,0.166238576173782,1713350777.1377
0.369940489530563,0.176348015666008,1713350777.16051
0.371232271194458,0.174780085682869,1713350777.16177
0.367991656064987,0.193760097026825,1713350777.18882
0.373700231313705,0.179684549570084,1713350777.18997
0.37119123339653,0.181752279400826,1713350777.24434
0.369667053222656,0.17886683344841,1713350777.24574
0.370759636163712,0.184368997812271,1713350777.27261
0.370934665203094,0.184820517897606,1713350777.27369
0.36993083357811,0.188241347670555,1713350777.305
0.370191723108292,0.187939256429672,1713350777.30607
0.368945896625519,0.187528878450394,1713350777.32953
0.36951756477356,0.192543640732765,1713350777.33028
0.370683819055557,0.183184176683426,1713350777.35266
0.369702637195587,0.195840179920197,1713350777.35444
0.371610194444656,0.179744645953178,1713350777.38468
0.370425909757614,0.182296738028526,1713350777.38575
0.371935218572617,0.167268380522728,1713350777.40868
0.369663208723068,0.179141044616699,1713350777.40964
0.373362600803375,0.171817272901535,1713350777.4849
0.371007740497589,0.192983195185661,1713350777.48592
0.373020231723785,0.195160791277885,1713350777.52077
0.372098505496979,0.189983710646629,1713350777.52179
0.373465806245804,0.190632030367851,1713350777.54498
0.370612025260925,0.191687896847725,1713350777.54618
0.372503072023392,0.184578627347946,1713350777.56849
0.373236298561096,0.186269581317902,1713350777.56933
0.371760845184326,0.171251654624939,1713350777.61637
0.375569730997086,0.166845738887787,1713350777.61708
0.374342828989029,0.16035383939743,1713350777.64443
0.372196316719055,0.185245648026466,1713350777.64519
0.373620986938477,0.19078104197979,1713350777.70464
0.371544241905212,0.193075940012932,1713350777.70561
0.374450355768204,0.180131405591965,1713350777.75268
0.375895321369171,0.16732919216156,1713350777.75342
0.370988428592682,0.174041748046875,1713350777.7771
0.373881071805954,0.169296771287918,1713350777.77825
0.372532784938812,0.168209373950958,1713350777.82457
0.371646612882614,0.153758883476257,1713350777.82598
0.370363593101501,0.181630343198776,1713350777.90019
0.371916711330414,0.159189313650131,1713350777.90095
0.371403455734253,0.182090133428574,1713350777.92456
0.375865668058395,0.171288967132568,1713350777.9253
0.370115369558334,0.168139845132828,1713350777.95245
0.372089803218842,0.196863099932671,1713350777.95381
0.36950546503067,0.18807777762413,1713350777.98093
0.37144672870636,0.188139468431473,1713350777.99668
0.368335783481598,0.188877895474434,1713350778.05279
0.368006378412247,0.12746761739254,1713350778.0539
0.371541768312454,0.150670737028122,1713350778.08848
0.371169060468674,0.0601437650620937,1713350778.08968
0.367127418518066,0.119053289294243,1713350778.13684
0.370125740766525,0.184124782681465,1713350778.1383
0.36731806397438,0.184092283248901,1713350778.16069
0.369945168495178,0.187564164400101,1713350778.16182
0.367140114307404,0.194219127297401,1713350778.18515
0.3697230219841,0.194708630442619,1713350778.18688
0.36855348944664,0.190035149455071,1713350778.22847
0.370087027549744,0.187063455581665,1713350778.22948
0.363747030496597,0.166828438639641,1713350778.28127
0.369939774274826,0.189315855503082,1713350778.28267
0.360351771116257,0.168051764369011,1713350778.30838
0.362643957138062,0.173182010650635,1713350778.30954
0.369292020797729,0.17266508936882,1713350778.33251
0.365706861019135,0.183532997965813,1713350778.33371
0.369121432304382,0.144524335861206,1713350778.38932
0.364148437976837,0.180472016334534,1713350778.39024
0.367246031761169,0.171095728874207,1713350778.43268
0.366686850786209,0.179022669792175,1713350778.43403
0.370850533246994,0.171527683734894,1713350778.46047
0.366766452789307,0.191541433334351,1713350778.46142
0.367206364870071,0.181625962257385,1713350778.54058
0.36525970697403,0.174605831503868,1713350778.54178
0.371078193187714,0.168409243226051,1713350778.56041
0.368034422397614,0.189017370343208,1713350778.61264
0.367374390363693,0.16562981903553,1713350778.63673
0.369829624891281,0.163857981562614,1713350778.63791
0.368057250976562,0.178011760115623,1713350778.66444
0.367545127868652,0.158599838614464,1713350778.66517
0.372181177139282,0.163733452558517,1713350778.69289
0.367946237325668,0.180865809321404,1713350778.69409
0.368467330932617,0.177558496594429,1713350778.71237
0.372189670801163,0.13103398680687,1713350778.71345
0.36948299407959,0.174972549080849,1713350778.74827
0.369563192129135,0.166075006127357,1713350778.74919
0.370197534561157,0.173329144716263,1713350778.77226
0.368952572345734,0.172065287828445,1713350778.7734
0.373121857643127,0.173895254731178,1713350778.85642
0.369206726551056,0.164694115519524,1713350778.8574
0.37123516201973,0.17261229455471,1713350778.90475
0.372505128383636,0.171687990427017,1713350778.90587
0.369314223527908,0.183774948120117,1713350778.96053
0.372232913970947,0.179130792617798,1713350778.96167
0.372206300497055,0.180073812603951,1713350778.98496
0.372892707586288,0.184931978583336,1713350778.98625
0.372514992952347,0.197279289364815,1713350779.0124
0.374096751213074,0.19936466217041,1713350779.01376
0.3724065721035,0.17529584467411,1713350779.04461
0.373402178287506,0.193100184202194,1713350779.04652
0.372559607028961,0.194322019815445,1713350779.09682
0.372751742601395,0.192237704992294,1713350779.09848
0.370101422071457,0.200414225459099,1713350779.11291
0.375026762485504,0.192133367061615,1713350779.13688
0.372794151306152,0.187645003199577,1713350779.16078
0.376286715269089,0.198265627026558,1713350779.16193
0.373336851596832,0.189521268010139,1713350779.19232
0.375164836645126,0.194410294294357,1713350779.19352
0.375078678131104,0.191461145877838,1713350779.2163
0.374705076217651,0.194118052721024,1713350779.21749
0.375555962324142,0.195980191230774,1713350779.27306
0.372523874044418,0.163851827383041,1713350779.274
0.374482125043869,0.147204950451851,1713350779.47266
0.375804662704468,0.125732138752937,1713350779.47371
0.374659210443497,0.185798972845078,1713350779.49677
0.375305771827698,0.159797444939613,1713350779.49779
0.372213751077652,0.14425964653492,1713350779.52046
0.374829411506653,0.12075487524271,1713350779.52118
0.374625504016876,0.159948170185089,1713350779.54459
0.373743236064911,0.163926258683205,1713350779.54614
0.371960699558258,0.153249710798264,1713350779.62077
0.371472775936127,0.148783028125763,1713350779.62152
0.373665004968643,0.153006419539452,1713350779.65253
0.373033165931702,0.143581956624985,1713350779.65357
0.371209532022476,0.159555643796921,1713350779.70489
0.371804684400558,0.16428878903389,1713350779.70602
0.373822331428528,0.173160418868065,1713350779.73241
0.36976432800293,0.173361107707024,1713350779.73346
0.371993541717529,0.185042843222618,1713350779.75701
0.369853943586349,0.185784071683884,1713350779.75767
0.369093537330627,0.188794523477554,1713350779.81252
0.372008085250854,0.166673764586449,1713350779.81378
0.370106279850006,0.155172526836395,1713350779.86032
0.37017035484314,0.133707538247108,1713350779.86162
0.369022995233536,0.119414135813713,1713350779.88871
0.368429064750671,0.145764112472534,1713350779.88956
0.370101183652878,0.184835091233253,1713350779.91646
0.368660151958466,0.123484678566456,1713350779.91725
0.365757912397385,0.100198529660702,1713350780.013
0.366183429956436,0.172497868537903,1713350780.01437
0.371309161186218,0.149581983685493,1713350780.06431
0.369957566261291,0.145013079047203,1713350780.06525
0.367817044258118,0.183811873197556,1713350780.08446
0.367170691490173,0.174271285533905,1713350780.08626
0.369153410196304,0.178185805678368,1713350780.11239
0.362318187952042,0.162116199731827,1713350780.11315
0.368161112070084,0.175219401717186,1713350780.13695
0.363618314266205,0.176161795854568,1713350780.13823
0.364284515380859,0.17796117067337,1713350780.16436
0.362654149532318,0.150948598980904,1713350780.16555
0.365702956914902,0.142154663801193,1713350780.18082
0.362273395061493,0.172480225563049,1713350780.18176
0.365056663751602,0.17716072499752,1713350780.21274
0.364513576030731,0.164026275277138,1713350780.21367
0.362932294607162,0.157997384667397,1713350780.23644
0.366453021764755,0.164625644683838,1713350780.2376
0.361361384391785,0.153696820139885,1713350780.26038
0.363949120044708,0.167485177516937,1713350780.26158
0.367193728685379,0.151460036635399,1713350780.37256
0.363002777099609,0.144586697220802,1713350780.37376
0.362212419509888,0.158113598823547,1713350780.40097
0.361441284418106,0.149622514843941,1713350780.40209
0.366742372512817,0.16043908894062,1713350780.43647
0.361686408519745,0.134668916463852,1713350780.43767
0.363790243864059,0.153016805648804,1713350780.4604
0.363507241010666,0.148067817091942,1713350780.46162
0.359452694654465,0.146013170480728,1713350780.50879
0.359992980957031,0.140142276883125,1713350780.5099
0.362511157989502,0.16006039083004,1713350780.53243
0.356997549533844,0.156028941273689,1713350780.53343
0.360854029655457,0.162003010511398,1713350780.57248
0.359566509723663,0.155892252922058,1713350780.57335
0.360752105712891,0.17141392827034,1713350780.60051
0.36341604590416,0.164376392960548,1713350780.60166
0.362586110830307,0.149970635771751,1713350780.65663
0.359557271003723,0.152695819735527,1713350780.65766
0.358990401029587,0.166042879223824,1713350780.68035
0.358568847179413,0.140479996800423,1713350780.68149
0.358678877353668,0.14733774960041,1713350780.70035
0.359122723340988,0.14108981192112,1713350780.70159
0.357454925775528,0.146219626069069,1713350780.71694
0.36025008559227,0.153274476528168,1713350780.71807
0.361643940210342,0.14859776198864,1713350780.76863
0.360884845256805,0.131246700882912,1713350780.76952
0.358561247587204,0.160670503973961,1713350780.80044
0.363237738609314,0.146631881594658,1713350780.80134
0.364921987056732,0.156456097960472,1713350780.92049
0.358348250389099,0.155154690146446,1713350780.92179
0.363214433193207,0.150955229997635,1713350780.94827
0.361626416444778,0.154142335057259,1713350780.94921
0.360229313373566,0.137450024485588,1713350780.97656
0.365472495555878,0.149445444345474,1713350780.97762
0.361851960420609,0.165378302335739,1713350780.99625
0.365411728620529,0.164080739021301,1713350780.99741
0.368785053491592,0.163331493735313,1713350781.0244
0.367926865816116,0.167219087481499,1713350781.02504
0.367061048746109,0.172333136200905,1713350781.04477
0.370351672172546,0.168130710721016,1713350781.04619
0.368266880512238,0.182354494929314,1713350781.07671
0.368570417165756,0.150594428181648,1713350781.07861
0.371073722839355,0.18507419526577,1713350781.1044
0.369055658578873,0.183882027864456,1713350781.10571
0.368972480297089,0.16289333999157,1713350781.1249
0.367419213056564,0.185812622308731,1713350781.12612
0.36779448390007,0.193453431129456,1713350781.15281
0.368168592453003,0.190675884485245,1713350781.1542
0.369202971458435,0.187395453453064,1713350781.17272
0.36938288807869,0.192181929945946,1713350781.17398
0.367836505174637,0.192099943757057,1713350781.22152
0.364372402429581,0.190302684903145,1713350781.22217
0.365541458129883,0.192878052592278,1713350781.26471
0.367547869682312,0.188733786344528,1713350781.26581
0.369523495435715,0.177560374140739,1713350781.2923
0.365153193473816,0.181349888443947,1713350781.34069
0.368532299995422,0.162951081991196,1713350781.39283
0.366295456886291,0.159991875290871,1713350781.39402
0.361235022544861,0.142080515623093,1713350781.41676
0.3646020591259,0.117258660495281,1713350781.41796
0.362324357032776,0.0857117474079132,1713350781.44457
0.365578532218933,0.0813865661621094,1713350781.44627
0.364696234464645,0.120117031037807,1713350781.52087
0.367451667785645,0.101381182670593,1713350781.5221
0.362981051206589,0.0887575894594193,1713350781.54869
0.363443195819855,0.0970025807619095,1713350781.55019
0.363428056240082,0.0893666818737984,1713350781.5766
0.365265846252441,0.160804256796837,1713350781.57816
0.359871506690979,0.0529962219297886,1713350781.60073
0.363263458013535,0.116008743643761,1713350781.60196
0.369110852479935,0.149372547864914,1713350781.65283
0.368989884853363,0.159831151366234,1713350781.65439
0.361306101083755,0.100242234766483,1713350781.6848
0.367127269506454,0.121405176818371,1713350781.68554
0.362345397472382,0.137354820966721,1713350781.70047
0.364381551742554,0.142487958073616,1713350781.70174
0.357116550207138,0.0807028561830521,1713350781.72831
0.364245057106018,0.104114733636379,1713350781.72992
0.365591794252396,0.129433751106262,1713350781.78074
0.360635608434677,0.107621192932129,1713350781.78188
0.363111615180969,0.0936605632305145,1713350781.80043
0.366129964590073,0.157947853207588,1713350781.80157
0.35734099149704,0.070690780878067,1713350781.85677
0.364280670881271,0.111901126801968,1713350781.87635
0.362407386302948,0.11665428429842,1713350781.90466
0.359431177377701,0.105299547314644,1713350781.90575
0.360042661428452,0.0824551656842232,1713350781.93659
0.360476076602936,0.0930503606796265,1713350781.93785
0.362092167139053,0.108848318457603,1713350782.01635
0.361877858638763,0.117938525974751,1713350782.01709
0.367250591516495,0.0920331105589867,1713350782.06876
0.364528805017471,0.105800412595272,1713350782.0702
0.359791576862335,0.0971219688653946,1713350782.09683
0.360570162534714,0.108733884990215,1713350782.09795
0.360075682401657,0.125482887029648,1713350782.12489
0.363433092832565,0.110224395990372,1713350782.12611
0.361847877502441,0.114007323980331,1713350782.12687
0.362413883209229,0.104196086525917,1713350782.12795
0.361602783203125,0.130066066980362,1713350782.17265
0.366463899612427,0.120288729667664,1713350782.17388
0.362590730190277,0.12516862154007,1713350782.24425
0.367582589387894,0.116592593491077,1713350782.24536
0.36510294675827,0.0879965126514435,1713350782.27269
0.362149059772491,0.117237411439419,1713350782.27392
0.360854119062424,0.110095106065273,1713350782.30035
0.370093882083893,0.0934102013707161,1713350782.30141
0.37038254737854,0.105254352092743,1713350782.32855
0.362492620944977,0.0958651751279831,1713350782.32982
0.365878701210022,0.10526916384697,1713350782.38041
0.366539388895035,0.095638282597065,1713350782.38132
0.37153697013855,0.0991180539131165,1713350782.44889
0.369177788496017,0.119321048259735,1713350782.4685
0.368975609540939,0.101830206811428,1713350782.51667
0.372405856847763,0.103326112031937,1713350782.51804
0.370323836803436,0.0940884798765183,1713350782.5728
0.369203269481659,0.11466733366251,1713350782.57397
0.369282871484756,0.0984308272600174,1713350782.58891
0.370198935270309,0.106947287917137,1713350782.59
0.36829486489296,0.134459674358368,1713350782.62046
0.370435476303101,0.12375845760107,1713350782.62201
0.372879832983017,0.0963343530893326,1713350782.64873
0.370170891284943,0.129182100296021,1713350782.64988
0.368393778800964,0.123188599944115,1713350782.66846
0.37227189540863,0.117661967873573,1713350782.6692
0.371481150388718,0.120650492608547,1713350782.68428
0.372242957353592,0.133345633745193,1713350782.68563
0.374352037906647,0.108306638896465,1713350782.7403
0.374429285526276,0.126677602529526,1713350782.74158
0.372128993272781,0.132470801472664,1713350782.76868
0.373885631561279,0.0959305614233017,1713350782.76967
0.373608589172363,0.125912576913834,1713350782.82908
0.374902606010437,0.138292506337166,1713350782.83001
0.375569492578506,0.13829505443573,1713350782.87309
0.373977661132812,0.149894282221794,1713350782.87395
0.372538298368454,0.126823425292969,1713350782.89673
0.371588081121445,0.154543086886406,1713350782.89868
0.374148637056351,0.142720580101013,1713350782.94042
0.373706549406052,0.147872507572174,1713350782.9416
0.374780029058456,0.184117570519447,1713350782.96576
0.372329115867615,0.188850671052933,1713350782.98099
0.37358433008194,0.189916640520096,1713350783.02939
0.370791763067245,0.180060923099518,1713350783.03063
0.372293949127197,0.182611152529717,1713350783.04848
0.373776406049728,0.173612236976624,1713350783.04971
0.374007731676102,0.177756443619728,1713350783.10046
0.3711878657341,0.166441723704338,1713350783.10114
0.373624563217163,0.174085795879364,1713350783.14882
0.372583359479904,0.171244487166405,1713350783.15007
0.369746208190918,0.151037022471428,1713350783.21692
0.372866094112396,0.149258732795715,1713350783.21799
0.373841643333435,0.120971821248531,1713350783.2327
0.369282990694046,0.0899581760168076,1713350783.23374
0.372728377580643,0.110517978668213,1713350783.24486
0.372196227312088,0.126243770122528,1713350783.24647
0.371245980262756,0.0713322833180428,1713350783.32432
0.369035929441452,0.110174871981144,1713350783.3252
0.372026145458221,0.0844310596585274,1713350783.34864
0.373493015766144,0.0816634669899941,1713350783.34976
0.371099144220352,0.0979402586817741,1713350783.43681
0.371498942375183,0.0777475014328957,1713350783.43806
0.370942682027817,0.0920008048415184,1713350783.46851
0.373040169477463,0.100726991891861,1713350783.46957
0.370055317878723,0.144058585166931,1713350783.48509
0.370518565177917,0.140339598059654,1713350783.48608
0.372536480426788,0.0785369947552681,1713350783.53685
0.372626692056656,0.0897440165281296,1713350783.53798
0.369506746530533,0.0939320772886276,1713350783.58465
0.367220401763916,0.0660125911235809,1713350783.58576
0.369686245918274,0.0607967525720596,1713350783.64047
0.36856883764267,0.0342731587588787,1713350783.64167
0.367073982954025,0.0533510595560074,1713350783.66842
0.371855556964874,-0.0606066398322582,1713350783.66966
0.363826364278793,0.0877794250845909,1713350783.69262
0.371742755174637,0.0443279258906841,1713350783.69411
0.368778228759766,0.0478792898356915,1713350783.72083
0.369403094053268,0.0428728461265564,1713350783.72159
0.372265070676804,0.0354556664824486,1713350783.74055
0.374589055776596,0.0696259811520577,1713350783.74174
0.373452007770538,0.0452750250697136,1713350783.79736
0.370804309844971,0.0617610216140747,1713350783.79781
0.370271146297455,0.0396452099084854,1713350783.82984
0.371056824922562,0.0714432522654533,1713350783.8312
0.374537914991379,0.0753856152296066,1713350783.84449
0.370437741279602,0.0642246007919312,1713350783.84571
0.372660547494888,0.0668091028928757,1713350783.92146
0.370393812656403,0.0859703794121742,1713350783.92193
0.371357291936874,0.0929892510175705,1713350784.02046
0.37422177195549,0.0654998049139977,1713350784.02254
0.369683772325516,0.105810888111591,1713350784.0487
0.370224118232727,0.103649020195007,1713350784.04995
0.37430614233017,0.0933529362082481,1713350784.10039
0.372369259595871,0.105578802525997,1713350784.10149
0.372054576873779,0.116500906646252,1713350784.14839
0.372114032506943,0.0921841338276863,1713350784.14949
0.371386975049973,0.106320552527905,1713350784.20045
0.374867647886276,0.0953284949064255,1713350784.20146
0.370292395353317,0.112302459776402,1713350784.20837
0.371580392122269,0.107311889529228,1713350784.20944
0.373059898614883,0.110460624098778,1713350784.22014
0.371371418237686,0.113762639462948,1713350784.22105
0.372371077537537,0.125715836882591,1713350784.28447
0.37522879242897,0.124626271426678,1713350784.28545
0.37178561091423,0.120043233036995,1713350784.30839
0.372241258621216,0.130973845720291,1713350784.30948
0.371682703495026,0.14408603310585,1713350784.32516
0.373184144496918,0.134506016969681,1713350784.32615
0.371826946735382,0.134766384959221,1713350784.34892
0.373050898313522,0.114242389798164,1713350784.35022
0.370594590902328,0.143900871276855,1713350784.38436
0.373919069766998,0.135873451828957,1713350784.38553
0.371630638837814,0.141684383153915,1713350784.40033
0.369828850030899,0.161501571536064,1713350784.40104
0.372175455093384,0.152543067932129,1713350784.4445
0.373312473297119,0.155584245920181,1713350784.44535
0.374312460422516,0.149661511182785,1713350784.51283
0.375085651874542,0.137618646025658,1713350784.51382
0.374952077865601,0.161749333143234,1713350784.54094
0.372379064559937,0.157737836241722,1713350784.54222
0.375352263450623,0.143612384796143,1713350784.58441
0.373819440603256,0.151041969656944,1713350784.58529
0.37273895740509,0.165992647409439,1713350784.60836
0.374005317687988,0.174042612314224,1713350784.60947
0.374428153038025,0.166315451264381,1713350784.65248
0.373822063207626,0.160683140158653,1713350784.65374
0.374603867530823,0.173541992902756,1713350784.72898
0.376179158687592,0.19342876970768,1713350784.7302
0.372078895568848,0.186800360679626,1713350784.74865
0.374313414096832,0.185878500342369,1713350784.74959
0.375842928886414,0.181524232029915,1713350784.82084
0.372046053409576,0.189776435494423,1713350784.82199
0.375940322875977,0.195870220661163,1713350784.87274
0.371781706809998,0.193655177950859,1713350784.87381
0.373120427131653,0.189397603273392,1713350784.90055
0.374297708272934,0.189184546470642,1713350784.90218
0.375047385692596,0.182956367731094,1713350784.95241
0.37303951382637,0.17911522090435,1713350784.95362
0.373532861471176,0.172616004943848,1713350784.9805
0.375981390476227,0.162980124354363,1713350784.9815
0.373263120651245,0.171519219875336,1713350785.08061
0.372825354337692,0.164869278669357,1713350785.08176
0.372957438230515,0.146547347307205,1713350785.10044
0.373811215162277,0.11197204887867,1713350785.10135
0.372035056352615,0.101512782275677,1713350785.16048
0.371500283479691,0.101213619112968,1713350785.16156
0.36868542432785,0.0338858179748058,1713350785.23646
0.368718504905701,0.0823471769690514,1713350785.23717
0.373435884714127,0.0458988286554813,1713350785.26093
0.370609194040298,0.0606512129306793,1713350785.26187
0.371810019016266,0.119403459131718,1713350785.28083
0.37045881152153,0.104456305503845,1713350785.33238
0.372690111398697,0.106611587107182,1713350785.36484
0.372575908899307,0.124954327940941,1713350785.36617
0.373082458972931,0.100876666605473,1713350785.38842
0.372321218252182,0.12303151935339,1713350785.38966
0.370746701955795,0.107179522514343,1713350785.43786
0.37185999751091,0.109839506447315,1713350785.43888
0.369649827480316,0.132463827729225,1713350785.46846
0.370351731777191,0.107177689671516,1713350785.4695
0.374022960662842,0.0894482731819153,1713350785.49678
0.369898557662964,0.0879019349813461,1713350785.49755
0.369302839040756,0.0834860280156136,1713350785.5245
0.370162636041641,0.100861571729183,1713350785.52572
0.373641580343246,0.0613816119730473,1713350785.54467
0.368914574384689,0.127192929387093,1713350785.54586
0.373218983411789,0.0831994637846947,1713350785.56876
0.374908864498138,0.0881453230977058,1713350785.56998
0.370176374912262,0.0810258165001869,1713350785.64872
0.36996978521347,0.0738915428519249,1713350785.64997
0.370002031326294,0.056689765304327,1713350785.67262
0.369404673576355,0.0297499317675829,1713350785.67385
0.370809853076935,0.0703937858343124,1713350785.69665
0.373033463954926,0.0852404534816742,1713350785.69787
0.370717525482178,0.0521561019122601,1713350785.72446
0.370881676673889,0.040065199136734,1713350785.72573
0.373048692941666,0.0174603573977947,1713350785.74891
0.36988890171051,0.0576008036732674,1713350785.74956
0.372197598218918,0.0345525592565536,1713350785.76839
0.370192974805832,0.0711216852068901,1713350785.84417
0.373020619153976,0.0364857539534569,1713350785.87244
0.371482938528061,0.0296628568321466,1713350785.87352
0.369623929262161,0.0514708496630192,1713350785.89705
0.373812794685364,0.0060444176197052,1713350785.89826
0.373491674661636,0.0500487089157105,1713350785.97683
0.3738714158535,0.0338637977838516,1713350785.97804
0.37235164642334,0.0317900590598583,1713350785.99665
0.371270895004272,0.00478570302948356,1713350785.99762
0.373072355985641,0.0288483146578073,1713350786.08894
0.372744232416153,0.05269730463624,1713350786.09015
0.371712416410446,0.0421495139598846,1713350786.11279
0.373637020587921,0.039654441177845,1713350786.11412
0.375049203634262,0.0484066419303417,1713350786.13693
0.372140765190125,0.0317572206258774,1713350786.13818
0.371723830699921,0.0555635131895542,1713350786.16483
0.371422499418259,0.0137144569307566,1713350786.16584
0.372524172067642,0.0359056070446968,1713350786.21681
0.372722089290619,0.0420367158949375,1713350786.2181
0.364940911531448,0.0653608962893486,1713350786.24039
0.372924536466598,0.0284135658293962,1713350786.2415
0.37103196978569,0.0390729978680611,1713350786.26852
0.373383194208145,0.0599306225776672,1713350786.26982
0.374064922332764,0.0491402149200439,1713350786.28879
0.371543318033218,0.0288536045700312,1713350786.28998
0.37056976556778,0.0338931754231453,1713350786.34482
0.374098777770996,0.0226094573736191,1713350786.34624
0.374194234609604,0.0293297991156578,1713350786.36472
0.373501986265182,0.022257262840867,1713350786.39236
0.371200948953629,0.0430827215313911,1713350786.41704
0.374025762081146,0.0338110513985157,1713350786.41817
0.372629374265671,0.0196569431573153,1713350786.44034
0.375399053096771,0.0450747199356556,1713350786.44123
0.374300718307495,0.0414521470665932,1713350786.46885
0.374900728464127,0.029902396723628,1713350786.47005
0.37468022108078,0.0265486929565668,1713350786.48883
0.373050361871719,0.0675361379981041,1713350786.48959
0.373062819242477,0.0526565313339233,1713350786.5129
0.37526273727417,0.054474763572216,1713350786.51413
0.373795717954636,0.0875855162739754,1713350786.53637
0.373230040073395,0.0743078738451004,1713350786.53748
0.374688446521759,0.110720068216324,1713350786.5646
0.373459458351135,0.126483350992203,1713350786.56604
0.372495025396347,0.131612792611122,1713350786.62446
0.373192131519318,0.118674844503403,1713350786.62511
0.374010980129242,0.131356328725815,1713350786.71705
0.373826205730438,0.121883243322372,1713350786.71788
0.374782145023346,0.13947457075119,1713350786.77746
0.37245237827301,0.141269832849503,1713350786.77836
0.373966932296753,0.128949046134949,1713350786.80533
0.37231782078743,0.118338271975517,1713350786.80611
0.374023497104645,0.130240499973297,1713350786.84091
0.374148786067963,0.097780242562294,1713350786.84211
0.373814046382904,0.0803127735853195,1713350786.897
0.373598754405975,0.057348906993866,1713350786.89783
0.372731268405914,0.0366643778979778,1713350786.96139
0.371934801340103,0.0861326530575752,1713350786.96223
0.372664242982864,0.047451127320528,1713350786.98186
0.370082914829254,0.0139257730916142,1713350786.98253
0.373751074075699,-0.0145526062697172,1713350787.01309
0.373142123222351,0.0205173529684544,1713350787.01387
0.369027346372604,0.0854639410972595,1713350787.08143
0.372379153966904,0.0680606514215469,1713350787.08312
0.37093397974968,0.0195839069783688,1713350787.13249
0.371334612369537,0.0330743044614792,1713350787.13315
0.369998872280121,0.100352101027966,1713350787.16479
0.371781140565872,0.0723700150847435,1713350787.16664
0.371787965297699,0.0969645977020264,1713350787.18052
0.369979113340378,-0.0335089601576328,1713350787.18166
0.369513928890228,0.0375289209187031,1713350787.20443
0.371878027915955,0.0597805604338646,1713350787.20609
0.371582746505737,0.0358153134584427,1713350787.23278
0.369297653436661,0.0142439259216189,1713350787.23381
0.368313282728195,0.0602423809468746,1713350787.2613
0.36890709400177,0.0724510326981545,1713350787.26222
0.37437516450882,-0.0260426867753267,1713350787.28466
0.368193119764328,0.0128113972023129,1713350787.28597
0.368529587984085,0.0606997758150101,1713350787.3284
0.361999452114105,0.0012344338465482,1713350787.32974
0.367666631937027,0.0236406046897173,1713350787.40094
0.366642862558365,0.0469993092119694,1713350787.40227
0.369375199079514,-0.0402795933187008,1713350787.45688
0.370363712310791,-0.00376532599329948,1713350787.45791
0.369388669729233,0.0246336720883846,1713350787.53667
0.36899670958519,0.0346222780644894,1713350787.53919
0.37278887629509,0.0440884307026863,1713350787.56062
0.36996853351593,0.0443697534501553,1713350787.5618
0.370693773031235,0.0223923716694117,1713350787.58073
0.370216846466064,0.0414135865867138,1713350787.58224
0.368535310029984,0.0492421463131905,1713350787.61699
0.367971479892731,0.0113040553405881,1713350787.61821
0.367561101913452,0.0445541925728321,1713350787.6407
0.371955513954163,0.0316961593925953,1713350787.64191
0.368449062108994,0.0277581252157688,1713350787.66854
0.367720633745193,0.0338940396904945,1713350787.66972
0.368480980396271,0.0486232973635197,1713350787.68882
0.366548120975494,0.0543541759252548,1713350787.69042
0.369535267353058,0.058924812823534,1713350787.71361
0.369924426078796,0.0622886121273041,1713350787.7148
0.366327196359634,0.0356520302593708,1713350787.8023
0.371908843517303,0.0547435842454433,1713350787.80254
0.367725878953934,0.050005242228508,1713350787.8245
0.36879625916481,0.0443953350186348,1713350787.82558
0.367885947227478,0.0580498799681664,1713350787.84455
0.366807281970978,0.0447010807693005,1713350787.84579
0.367293775081635,0.0350031740963459,1713350787.87221
0.36761263012886,0.0659602805972099,1713350787.87339
0.368961572647095,0.0712578520178795,1713350787.90053
0.371832817792892,0.0899360552430153,1713350787.90172
0.368266314268112,0.0762397274374962,1713350787.91634
0.37377005815506,0.0868477150797844,1713350787.91783
0.369401603937149,0.0784754455089569,1713350787.99769
0.370529383420944,0.0736875310540199,1713350787.99819
0.367702066898346,0.106844589114189,1713350788.01645
0.369899272918701,0.0253170467913151,1713350788.01757
0.370540916919708,0.118262402713299,1713350788.05257
0.372175246477127,0.0985487252473831,1713350788.05364
0.37058824300766,0.123970493674278,1713350788.09676
0.372333377599716,0.10404247045517,1713350788.09808
0.373753935098648,0.0977838039398193,1713350788.12079
0.374051421880722,0.115364030003548,1713350788.12185
0.373230397701263,0.109748587012291,1713350788.17635
0.374863028526306,0.0907932966947556,1713350788.17733
0.372324287891388,0.0821658670902252,1713350788.25663
0.374265193939209,0.0662906467914581,1713350788.25787
0.374956548213959,0.116332188248634,1713350788.32444
0.372479170560837,0.0923703983426094,1713350788.3256
0.373767256736755,0.116393350064754,1713350788.34435
0.372614532709122,0.13044273853302,1713350788.34571
0.373414784669876,0.162832900881767,1713350788.36931
0.373754560947418,0.17272125184536,1713350788.37004
0.373044371604919,0.147711634635925,1713350788.4483
0.371486693620682,0.152267515659332,1713350788.44934
0.369899392127991,0.157342329621315,1713350788.47638
0.372812867164612,0.164143919944763,1713350788.47754
0.373970448970795,0.158288463950157,1713350788.50048
0.371831238269806,0.145160555839539,1713350788.50193
0.375001013278961,0.148576125502586,1713350788.52455
0.370856136083603,0.143480017781258,1713350788.5687
0.372313439846039,0.118288800120354,1713350788.60076
0.374196618795395,0.116291850805283,1713350788.60213
0.373091042041779,0.134253740310669,1713350788.62469
0.372723609209061,0.0847109407186508,1713350788.62596
0.373272985219955,0.0550397634506226,1713350788.6527
0.373254954814911,0.073926642537117,1713350788.65469
0.37269139289856,0.0201700627803802,1713350788.68491
0.375738739967346,0.0691140592098236,1713350788.68668
0.370708167552948,0.0329320356249809,1713350788.69696
0.369694948196411,-0.0195039007812738,1713350788.69804
0.372951418161392,0.0782623514533043,1713350788.74064
0.371932595968246,0.0790837183594704,1713350788.74171
0.37121194601059,0.0198657102882862,1713350788.76468
0.370777487754822,0.0528640002012253,1713350788.7657
0.374266982078552,0.0950058698654175,1713350788.83312
0.372432053089142,0.0992853716015816,1713350788.83427
0.373598605394363,0.0269583445042372,1713350788.86056
0.372392684221268,0.0845012068748474,1713350788.86147
0.370302110910416,0.0771626457571983,1713350788.88863
0.372359544038773,0.00522357737645507,1713350788.8897
0.372219830751419,0.0833518803119659,1713350788.95234
0.36640003323555,0.0573528483510017,1713350788.95309
0.373231440782547,0.0365073904395103,1713350788.98066
0.36802214384079,0.0677411556243897,1713350788.98184
0.369179129600525,0.0908984020352364,1713350789.00033
0.368723839521408,0.0594483688473702,1713350789.00156
0.371187657117844,0.0875646471977234,1713350789.04033
0.36822783946991,0.0425373837351799,1713350789.07275
0.37263947725296,0.0875359922647476,1713350789.09273
0.370788156986237,0.0843490362167358,1713350789.09407
0.365636944770813,0.0729676634073257,1713350789.13691
0.37093198299408,0.0840880945324898,1713350789.13855
0.37151899933815,0.115635447204113,1713350789.21648
0.370369046926498,0.0868545398116112,1713350789.21826
0.373664259910583,0.102284289896488,1713350789.29281
0.370279788970947,0.108603775501251,1713350789.29413
0.368297904729843,0.0996656492352486,1713350789.32095
0.370455622673035,0.104482218623161,1713350789.32206
0.37153235077858,0.104157380759716,1713350789.34091
0.37286964058876,0.118381597101688,1713350789.34208
0.372110158205032,0.121669664978981,1713350789.37294
0.372572690248489,0.120609432458878,1713350789.37375
0.369586527347565,0.133743017911911,1713350789.39633
0.374033719301224,0.120809063315392,1713350789.39745
0.373259276151657,0.124241717159748,1713350789.42459
0.372531592845917,0.105964802205563,1713350789.42582
0.37375620007515,0.132001757621765,1713350789.44483
0.372934639453888,0.130721509456635,1713350789.44604
0.373831838369369,0.124141946434975,1713350789.50564
0.371224343776703,0.112151198089123,1713350789.5062
0.373286992311478,0.121958680450916,1713350789.57635
0.371522158384323,0.11882571876049,1713350789.57713
0.371153056621552,0.108922556042671,1713350789.5967
0.371548414230347,0.105702325701714,1713350789.59787
0.374740242958069,0.107033543288708,1713350789.64447
0.371650844812393,0.108838893473148,1713350789.66827
0.37371614575386,0.0979988723993301,1713350789.68066
0.372648477554321,0.113444872200489,1713350789.68171
0.372116446495056,0.102434538304806,1713350789.68867
0.372400403022766,0.0983700081706047,1713350789.68982
0.373844921588898,0.108736865222454,1713350789.74096
0.371880024671555,0.0914960950613022,1713350789.74194
0.372079432010651,0.120104677975178,1713350789.79258
0.373076230287552,0.0981752276420593,1713350789.7938
0.372293919324875,0.044224213808775,1713350789.82057
0.37205982208252,0.111810110509396,1713350789.82175
0.373419642448425,0.0992724895477295,1713350789.8446
0.372562795877457,0.0982014313340187,1713350789.84568
0.373420268297195,0.100535191595554,1713350789.9288
0.373471945524216,0.0818020850419998,1713350789.93002
0.374686658382416,0.121852234005928,1713350789.94877
0.373005658388138,0.0921575427055359,1713350789.94994
0.372205585241318,0.103929430246353,1713350789.98073
0.374562323093414,0.0859727337956429,1713350789.98193
0.375167399644852,0.0510119162499905,1713350790.00069
0.372395515441895,0.110566161572933,1713350790.00207
0.376019477844238,0.137835294008255,1713350790.05251
0.374850422143936,0.104393362998962,1713350790.05365
0.374170511960983,0.119288839399815,1713350790.08219
0.375039875507355,0.158001944422722,1713350790.08271
0.374549984931946,0.164488092064857,1713350790.13252
0.375045031309128,0.17885072529316,1713350790.13369
0.374842494726181,0.175113052129745,1713350790.20065
0.373507380485535,0.157385692000389,1713350790.2018
0.372963011264801,0.168341115117073,1713350790.2406
0.373110413551331,0.15231953561306,1713350790.24186
0.373113989830017,0.162562295794487,1713350790.2609
0.374639928340912,0.157512485980988,1713350790.26197
0.373383969068527,0.149824798107147,1713350790.28474
0.372517794370651,0.142352715134621,1713350790.28655
0.37301978468895,0.144229128956795,1713350790.34047
0.374489456415176,0.122476376593113,1713350790.34172
0.375664293766022,0.100298635661602,1713350790.36069
0.375951111316681,0.0797806605696678,1713350790.36154
0.375894606113434,0.0773770809173584,1713350790.41256
0.372561007738113,0.0768909379839897,1713350790.41364
0.373036056756973,0.114280618727207,1713350790.44471
0.373348474502563,-0.00685357395559549,1713350790.44598
0.37207293510437,0.0460019633173943,1713350790.48876
0.373922675848007,-0.0212136153131723,1713350790.48989
0.373035609722137,0.0585707426071167,1713350790.54083
0.372455894947052,0.0964462831616402,1713350790.54218
0.374236404895782,0.0403692647814751,1713350790.56877
0.373704552650452,0.0698285922408104,1713350790.56977
0.372303038835526,0.0817666947841644,1713350790.62471
0.375227242708206,0.109852634370327,1713350790.62605
0.373973786830902,0.0890352576971054,1713350790.64072
0.372704178094864,0.0959416702389717,1713350790.64209
0.372796326875687,0.0380247831344604,1713350790.69272
0.374918699264526,0.0707671865820885,1713350790.69413
0.375675350427628,0.0961605831980705,1713350790.79266
0.371619254350662,0.0473504923284054,1713350790.79398
0.371489435434341,0.116024225950241,1713350790.82044
0.372868776321411,0.120506443083286,1713350790.82159
0.373244673013687,0.142644122242928,1713350790.84025
0.373511761426926,0.0446976684033871,1713350790.84149
0.37005627155304,0.0746453553438187,1713350790.8725
0.369776427745819,0.0044450000859797,1713350790.87359
0.372399538755417,0.115480288863182,1713350790.93251
0.372058600187302,0.151994317770004,1713350790.93324
0.372512638568878,0.0245786178857088,1713350790.95674
0.371189147233963,0.0551792494952679,1713350790.95775
0.37389212846756,0.0857521817088127,1713350790.97636
0.372941076755524,0.0782400891184807,1713350790.97756
0.375459849834442,0.149603724479675,1713350791.00447
0.37432798743248,0.0265000350773334,1713350791.00566
0.374017149209976,0.0877871215343475,1713350791.05702
0.372307002544403,0.12980230152607,1713350791.05822
0.373591035604477,-0.017015416175127,1713350791.08418
0.372935801744461,0.118152342736721,1713350791.08517
0.374080836772919,0.0784149169921875,1713350791.12439
0.37357622385025,0.0836428701877594,1713350791.1257
0.37422513961792,0.0100578898563981,1713350791.17682
0.3751420378685,0.06968704611063,1713350791.17757
0.373477011919022,0.0929711237549782,1713350791.19685
0.374195516109467,0.0970739349722862,1713350791.19808
0.375213205814362,0.0654361471533775,1713350791.25287
0.374084025621414,0.0385912731289864,1713350791.25429
0.374849319458008,0.100179441273212,1713350791.32426
0.374154955148697,0.115909844636917,1713350791.325
0.373344302177429,0.0733520239591599,1713350791.35259
0.374752074480057,0.0838782265782356,1713350791.35378
0.372375309467316,0.0815914422273636,1713350791.37617
0.374192625284195,0.100935950875282,1713350791.37694
0.373970538377762,0.0678546279668808,1713350791.40087
0.372358113527298,0.112199909985065,1713350791.40207
0.372473895549774,0.0806734785437584,1713350791.48463
0.376137673854828,0.140107944607735,1713350791.48605
0.373212069272995,0.0806824192404747,1713350791.53646
0.371480762958527,0.100827239453793,1713350791.53739
0.371829390525818,0.104709692299366,1713350791.59278
0.372237235307693,0.130937680602074,1713350791.59389
0.372961282730103,0.12824273109436,1713350791.61246
0.371999144554138,0.118375442922115,1713350791.61421
0.375224590301514,0.129285618662834,1713350791.6407
0.372663646936417,0.121759243309498,1713350791.64147
0.372782796621323,0.130629867315292,1713350791.66843
0.373188316822052,0.144546315073967,1713350791.66917
0.371239483356476,0.140432730317116,1713350791.69265
0.372295707464218,0.136440128087997,1713350791.69375
0.370892256498337,0.145528748631477,1713350791.72459
0.372858434915543,0.0730383396148682,1713350791.72584
0.37242004275322,0.148293420672417,1713350791.7849
0.374442428350449,0.145047411322594,1713350791.78604
0.374044150114059,0.136557310819626,1713350791.86092
0.373714864253998,0.143470734357834,1713350791.87667
0.373250246047974,0.129767298698425,1713350791.9099
0.374949485063553,0.111692987382412,1713350791.91016
0.374534636735916,0.130254492163658,1713350791.92937
0.373334914445877,0.110606357455254,1713350791.93
0.372932493686676,0.116983830928803,1713350792.00062
0.373237788677216,0.146408155560493,1713350792.00184
0.372154325246811,0.0810742303729057,1713350792.02458
0.373613983392715,0.100434124469757,1713350792.0257
0.372823625802994,0.139486506581306,1713350792.06457
0.374590307474136,0.155152469873428,1713350792.06554
0.373377472162247,0.161896854639053,1713350792.09679
0.373001277446747,0.194481208920479,1713350792.09811
0.373387604951859,0.184676617383957,1713350792.14545
0.373114317655563,0.178035899996758,1713350792.14759
0.375178545713425,0.178299084305763,1713350792.20084
0.37195873260498,0.174397990107536,1713350792.20199
0.373204529285431,0.174187958240509,1713350792.22159
0.372993350028992,0.163457319140434,1713350792.22211
0.370787769556046,0.173633009195328,1713350792.34057
0.371920317411423,0.153812691569328,1713350792.34174
0.372692853212357,0.163102194666863,1713350792.39648
0.372383534908295,0.137668073177338,1713350792.39803
0.373259395360947,0.0999039858579636,1713350792.44069
0.371778279542923,0.0314897447824478,1713350792.44178
0.369215101003647,0.126710966229439,1713350792.46828
0.37323871254921,0.101273722946644,1713350792.46942
0.370406776666641,0.107744619250298,1713350792.49377
0.371527552604675,0.104177720844746,1713350792.51689
0.375057369470596,0.0802678614854813,1713350792.54074
0.372151017189026,0.129714399576187,1713350792.54192
0.371618628501892,0.0780365169048309,1713350792.59684
0.372099816799164,0.11626261472702,1713350792.59801
0.374979108572006,0.131134867668152,1713350792.62454
0.368863135576248,0.102862127125263,1713350792.62568
0.372844487428665,0.129897981882095,1713350792.67632
0.371316194534302,0.130126267671585,1713350792.67694
0.371647596359253,0.0915489345788956,1713350792.7252
0.374675959348679,0.0976906195282936,1713350792.726
0.370411574840546,0.159296870231628,1713350792.75237
0.366427719593048,0.056774914264679,1713350792.7532
0.373486340045929,0.0515379719436169,1713350792.77636
0.371988892555237,0.141105771064758,1713350792.77713
0.368794918060303,0.121830932796001,1713350792.80036
0.37049588561058,0.0772974118590355,1713350792.80143
0.370741039514542,0.136441141366959,1713350792.82442
0.370209515094757,0.150676310062408,1713350792.82571
0.369428515434265,0.141899839043617,1713350792.85668
0.367925852537155,0.107254818081856,1713350792.8579
0.367346048355103,0.138534396886826,1713350792.88912
0.369879990816116,0.164395719766617,1713350792.89005
0.368693351745605,0.114608816802502,1713350792.94082
0.367567151784897,0.157203808426857,1713350792.94224
0.369620263576508,0.12214495241642,1713350792.97253
0.369471400976181,0.135605826973915,1713350792.97318
0.366822808980942,0.13221101462841,1713350792.99283
0.368279755115509,0.108910776674747,1713350793.01265
0.368678033351898,0.132166534662247,1713350793.04422
0.36831521987915,0.106017306447029,1713350793.04539
0.368309676647186,0.0967633277177811,1713350793.07258
0.372768968343735,0.0901803523302078,1713350793.07341
0.370970159769058,0.119946397840977,1713350793.09675
0.367545962333679,0.0451536700129509,1713350793.09798
0.369323283433914,0.104648768901825,1713350793.12444
0.368330597877502,0.124743394553661,1713350793.12514
0.367487728595734,0.162249535322189,1713350793.15658
0.368014216423035,0.107574790716171,1713350793.15831
0.369730085134506,0.106349498033524,1713350793.17245
0.37203311920166,0.135469615459442,1713350793.17334
0.369619935750961,0.146028563380241,1713350793.20446
0.368257313966751,0.12157004326582,1713350793.20525
0.367929875850677,0.138279035687447,1713350793.26078
0.368501037359238,0.138765662908554,1713350793.26174
0.372090578079224,0.151433497667313,1713350793.28017
0.366880893707275,0.111823722720146,1713350793.28116
0.367952972650528,0.12846727669239,1713350793.33293
0.364461302757263,0.112326838076115,1713350793.33476
0.368232756853104,0.133076041936874,1713350793.38096
0.36797171831131,0.125435665249825,1713350793.38187
0.369640797376633,0.116901516914368,1713350793.4138
0.369542717933655,0.101429499685764,1713350793.41567
0.364203929901123,0.12268739938736,1713350793.46046
0.364510029554367,0.135587647557259,1713350793.4619
0.368500232696533,0.137418046593666,1713350793.54899
0.370615392923355,0.131325364112854,1713350793.54947
0.368066728115082,0.138369485735893,1713350793.57655
0.369955480098724,0.132858037948608,1713350793.57746
0.369240343570709,0.130624771118164,1713350793.5884
0.368777900934219,0.156613603234291,1713350793.58953
0.37085947394371,0.129840955138206,1713350793.60027
0.372762382030487,0.139921054244041,1713350793.60147
0.371378600597382,0.119395814836025,1713350793.64468
0.367371946573257,0.15257465839386,1713350793.64585
0.374315619468689,0.128784656524658,1713350793.6968
0.370070457458496,0.136274486780167,1713350793.69787
0.372878909111023,0.138033628463745,1713350793.74499
0.374950736761093,0.13970410823822,1713350793.74607
0.370725572109222,0.0928644835948944,1713350793.79231
0.371138781309128,0.123187206685543,1713350793.79343
0.373103111982346,0.153992086648941,1713350793.80844
0.373441070318222,0.153440833091736,1713350793.8097
0.373041093349457,0.154613330960274,1713350793.86102
0.371595859527588,0.15142796933651,1713350793.86236
0.374283641576767,0.166697755455971,1713350793.88065
0.373166888952255,0.150573566555977,1713350793.88166
0.370922774076462,0.161423400044441,1713350793.93691
0.372891902923584,0.159817636013031,1713350793.93838
0.372990190982819,0.150131165981293,1713350793.97238
0.371423661708832,0.153103932738304,1713350793.97331
0.370505392551422,0.170604825019836,1713350793.99668
0.372326999902725,0.160694196820259,1713350793.99758
0.367443144321442,0.155425384640694,1713350794.06834
0.373072296380997,0.155632227659225,1713350794.06945
0.370704829692841,0.124131374061108,1713350794.12431
0.369000256061554,0.142473876476288,1713350794.12542
0.372941851615906,0.11538277566433,1713350794.14478
0.36977231502533,0.100199684500694,1713350794.14642
0.370794832706451,0.101461045444012,1713350794.16856
0.37028369307518,0.0894116386771202,1713350794.16969
0.370241105556488,0.0814219042658806,1713350794.22444
0.36570593714714,0.0753241181373596,1713350794.22517
0.370453953742981,0.113116472959518,1713350794.32039
0.368481606245041,0.0998721569776535,1713350794.32129
0.368776917457581,0.0536742135882378,1713350794.33643
0.371988892555237,0.09981869161129,1713350794.33762
0.370877683162689,0.101575426757336,1713350794.36457
0.371516436338425,0.0977354347705841,1713350794.36576
0.371906042098999,0.0979232862591744,1713350794.42061
0.373558580875397,0.104620262980461,1713350794.42166
0.370954722166061,0.113148309290409,1713350794.44483
0.371971875429153,0.125514909625053,1713350794.44642
0.363641858100891,0.109094977378845,1713350794.47307
0.369232684373856,0.0708738788962364,1713350794.47391
0.370561361312866,0.0796766579151154,1713350794.51655
0.368907958269119,0.0909267663955689,1713350794.51784
0.373523443937302,0.0491661801934242,1713350794.58082
0.366973876953125,0.0943510085344315,1713350794.58189
0.368453443050385,0.0709303691983223,1713350794.60456
0.371337592601776,0.0883968845009804,1713350794.60585
0.371207535266876,0.0671597570180893,1713350794.70843
0.371948599815369,0.0703164264559746,1713350794.70937
0.365154027938843,0.10437336564064,1713350794.73264
0.37022277712822,0.108161188662052,1713350794.7338
0.371082067489624,0.0968621373176575,1713350794.75676
0.368946224451065,0.0613555535674095,1713350794.75796
0.368987053632736,0.125954702496529,1713350794.78437
0.373120993375778,0.121186405420303,1713350794.78534
0.373158305883408,0.116820260882378,1713350794.809
0.371018797159195,0.103213310241699,1713350794.81009
0.368370413780212,0.114200510084629,1713350794.85692
0.370397508144379,0.110395133495331,1713350794.85795
0.371285706758499,0.104500778019428,1713350794.91287
0.371989846229553,0.130805984139442,1713350794.91388
0.370958209037781,0.129891097545624,1713350794.96041
0.371936440467834,0.125541150569916,1713350794.96148
0.369224429130554,0.122530847787857,1713350795.01239
0.369007080793381,0.151086151599884,1713350795.01363
0.36692550778389,0.134785324335098,1713350795.0329
0.368576347827911,0.151997685432434,1713350795.03405
0.366269320249557,0.135558605194092,1713350795.06091
0.370678395032883,0.123693451285362,1713350795.06197
0.37017685174942,0.119043961167336,1713350795.105
0.369076609611511,0.122255727648735,1713350795.10603
0.367000490427017,0.148752346634865,1713350795.11711
0.365537226200104,0.160067409276962,1713350795.1183
0.366100966930389,0.14763705432415,1713350795.14097
0.371766805648804,0.155383542180061,1713350795.16454
0.364703893661499,0.153550267219543,1713350795.22091
0.369015157222748,0.150984510779381,1713350795.22219
0.369450211524963,0.154312968254089,1713350795.23661
0.364599496126175,0.143577292561531,1713350795.23779
0.367777854204178,0.142032146453857,1713350795.27268
0.368137449026108,0.148123443126678,1713350795.27388
0.367046982049942,0.159314796328545,1713350795.29675
0.367016583681107,0.151327237486839,1713350795.2978
0.367066770792007,0.155596300959587,1713350795.33689
0.36813148856163,0.130677759647369,1713350795.3381
0.366221308708191,0.153536751866341,1713350795.36091
0.370355427265167,0.159669831395149,1713350795.36195
0.368774145841598,0.152238324284554,1713350795.4125
0.370068043470383,0.164311960339546,1713350795.41431
0.370853543281555,0.161947146058083,1713350795.44039
0.369622528553009,0.141499996185303,1713350795.44157
0.369032859802246,0.17669115960598,1713350795.48857
0.370757400989532,0.15098412334919,1713350795.48957
0.370080649852753,0.158236920833588,1713350795.54062
0.372810870409012,0.163015559315681,1713350795.54159
0.371655642986298,0.150968119502068,1713350795.56907
0.368037551641464,0.184896588325501,1713350795.57006
0.368370056152344,0.183672681450844,1713350795.61661
0.371050298213959,0.193909481167793,1713350795.6177
0.371504604816437,0.179271578788757,1713350795.669
0.371496737003326,0.194196671247482,1713350795.67
0.369404762983322,0.187672927975655,1713350795.70098
0.371640890836716,0.184043720364571,1713350795.72859
0.368948191404343,0.190509766340256,1713350795.75278
0.368171721696854,0.185828775167465,1713350795.75388
0.368961215019226,0.1849305331707,1713350795.7769
0.370946198701859,0.191371470689774,1713350795.77795
0.371862471103668,0.169524922966957,1713350795.80471
0.370594620704651,0.177621245384216,1713350795.80573
0.369147300720215,0.17197060585022,1713350795.84484
0.370990008115768,0.191649094223976,1713350795.84589
0.368407428264618,0.140806511044502,1713350795.90046
0.368353486061096,0.141494750976563,1713350795.90224
0.364787548780441,0.148409381508827,1713350795.92444
0.366313546895981,0.14117968082428,1713350795.92615
0.367270648479462,0.145368069410324,1713350795.98064
0.366964668035507,0.161215111613274,1713350795.98153
0.366679966449738,0.118112437427044,1713350796.0084
0.36982798576355,0.126098603010178,1713350796.00927
0.368381083011627,0.171460956335068,1713350796.05234
0.36826553940773,0.0457557886838913,1713350796.05373
0.360637485980988,0.0895339995622635,1713350796.07701
0.36798694729805,0.145772278308868,1713350796.07821
0.367294788360596,0.138219222426415,1713350796.14091
0.366785079240799,0.117090135812759,1713350796.14201
0.365440249443054,0.164080068469048,1713350796.16478
0.366656541824341,0.171306371688843,1713350796.1658
0.365864843130112,0.144776195287704,1713350796.21236
0.36765918135643,0.137203127145767,1713350796.21349
0.359713792800903,0.158836632966995,1713350796.31299
0.364485889673233,0.156223759055138,1713350796.34057
0.367143481969833,0.125297918915749,1713350796.36483
0.365316540002823,0.154975101351738,1713350796.36597
0.36055913567543,0.144066944718361,1713350796.39234
0.371977984905243,0.15209686756134,1713350796.3937
0.364985346794128,0.106560863554478,1713350796.42036
0.366894781589508,0.131569609045982,1713350796.4216
0.364462673664093,0.117691248655319,1713350796.44428
0.366243541240692,0.115423023700714,1713350796.44547
0.367823094129562,0.123140081763268,1713350796.46444
0.362258195877075,0.142773076891899,1713350796.46559
0.365500390529633,0.139248743653297,1713350796.49349
0.366801857948303,0.146525904536247,1713350796.49408
0.366569042205811,0.142273038625717,1713350796.54039
0.364708602428436,0.129207000136375,1713350796.54141
0.365191906690598,0.155749440193176,1713350796.56906
0.365346789360046,0.0880127623677254,1713350796.57019
0.367003113031387,0.153288468718529,1713350796.61639
0.367407530546188,0.123525746166706,1713350796.61748
0.36632439494133,0.149973228573799,1713350796.73263
0.366972535848618,0.150784403085709,1713350796.7335
0.36648428440094,0.145325854420662,1713350796.76075
0.369984865188599,0.145186513662338,1713350796.76155
0.371358692646027,0.138964429497719,1713350796.80891
0.36442843079567,0.14545638859272,1713350796.81019
0.365715563297272,0.1556705981493,1713350796.83241
0.371723920106888,0.140233293175697,1713350796.83359
0.369286000728607,0.159556403756142,1713350796.8845
0.373343229293823,0.142777740955353,1713350796.88582
0.372486442327499,0.144079878926277,1713350796.91301
0.370205074548721,0.156244054436684,1713350796.91464
0.370529472827911,0.148934006690979,1713350796.96115
0.373330295085907,0.146655634045601,1713350796.96273
0.371815651655197,0.158139362931252,1713350796.98449
0.372185051441193,0.156662076711655,1713350796.98579
0.372168660163879,0.144185230135918,1713350797.02114
0.36978605389595,0.153018727898598,1713350797.02218
0.372549265623093,0.158520892262459,1713350797.04845
0.369449019432068,0.159211859107018,1713350797.04937
0.371205985546112,0.144986778497696,1713350797.13646
0.368095993995666,0.164574146270752,1713350797.13784
0.370088875293732,0.165307238698006,1713350797.16485
0.372462689876556,0.145315617322922,1713350797.16551
0.371043384075165,0.157448053359985,1713350797.18875
0.373066276311874,0.15883606672287,1713350797.18983
0.371100068092346,0.167807132005692,1713350797.25678
0.372303277254105,0.150385662913322,1713350797.25804
0.372552245855331,0.144453465938568,1713350797.28062
0.372271209955215,0.160330280661583,1713350797.28177
0.374002367258072,0.18166472017765,1713350797.30847
0.37182480096817,0.136965855956078,1713350797.30964
0.37295326590538,0.16373498737812,1713350797.34441
0.373316645622253,0.155282720923424,1713350797.34547
0.371580064296722,0.171925023198128,1713350797.36867
0.371665507555008,0.185717046260834,1713350797.36998
0.374827802181244,0.181132167577744,1713350797.44896
0.370269596576691,0.194636851549149,1713350797.44991
0.369947403669357,0.190214693546295,1713350797.47243
0.369306206703186,0.187977090477943,1713350797.47342
0.371762901544571,0.193830147385597,1713350797.52435
0.370940804481506,0.184250518679619,1713350797.5255
0.371187090873718,0.191083610057831,1713350797.55245
0.368529707193375,0.188985258340836,1713350797.55366
0.368936032056808,0.185746133327484,1713350797.57647
0.370991170406342,0.179067999124527,1713350797.57779
0.369923800230026,0.177300930023193,1713350797.59641
0.368632912635803,0.160161659121513,1713350797.59744
0.368955850601196,0.173520505428314,1713350797.6285
0.369393229484558,0.13957679271698,1713350797.62969
0.368519276380539,0.143756628036499,1713350797.65228
0.367968142032623,0.129309415817261,1713350797.65345
0.36982986330986,0.125870555639267,1713350797.67641
0.366902828216553,0.111702844500542,1713350797.67746
0.365592747926712,0.129082515835762,1713350797.72438
0.363577574491501,0.0672184154391289,1713350797.72499
0.368404626846313,0.104307107627392,1713350797.78458
0.365624010562897,0.0475765243172646,1713350797.78554
0.3655004799366,0.117089755833149,1713350797.84044
0.36569818854332,0.0939896777272224,1713350797.84129
0.363150715827942,0.0672806352376938,1713350797.86465
0.370426267385483,0.117173172533512,1713350797.86587
0.359868258237839,0.0939489975571632,1713350797.91271
0.363898009061813,0.096461333334446,1713350797.91375
0.36240753531456,0.135087952017784,1713350797.96826
0.364501655101776,0.0675931572914124,1713350797.9694
0.35651832818985,0.113539345562458,1713350798.02067
0.365705549716949,0.132111385464668,1713350798.02134
0.36351203918457,0.1272142380476,1713350798.11295
0.364961892366409,0.131072700023651,1713350798.1138
0.36446276307106,0.0352106429636478,1713350798.14073
0.357682704925537,0.114758685231209,1713350798.14224
0.357157647609711,0.10586666315794,1713350798.1927
0.350365042686462,0.112499833106995,1713350798.19372
0.362295299768448,0.116135582327843,1713350798.21681
0.36361888051033,0.0998386442661285,1713350798.2179
0.356493175029755,0.067037969827652,1713350798.24091
0.353958904743195,0.114240422844887,1713350798.24186
0.358159422874451,0.0930953174829483,1713350798.26912
0.354751586914062,0.106247469782829,1713350798.27025
0.36481773853302,0.0902584418654442,1713350798.29637
0.366477310657501,0.00841366127133369,1713350798.29719
0.357247322797775,0.117048501968384,1713350798.32441
0.363092392683029,0.0742806643247604,1713350798.32525
0.363081574440002,0.0804959610104561,1713350798.34896
0.356756508350372,0.114022471010685,1713350798.35035
0.366854786872864,0.0861838087439537,1713350798.39668
0.36536905169487,0.0168591514229774,1713350798.39784
0.35480985045433,0.105582840740681,1713350798.42053
0.36249253153801,0.0900109633803368,1713350798.42212
0.368338197469711,0.0741717591881752,1713350798.45312
0.36069592833519,0.0592881143093109,1713350798.47616
0.364220440387726,0.0733097568154335,1713350798.49661
0.362932950258255,0.0797158405184746,1713350798.49766
0.361333578824997,0.0871717780828476,1713350798.52446
0.362105518579483,0.0631325840950012,1713350798.52606
0.368386566638947,0.0635933876037598,1713350798.57629
0.358827888965607,0.0602214150130749,1713350798.57726
0.364053934812546,0.0631236881017685,1713350798.60047
0.369352519512177,0.064511738717556,1713350798.60161
0.362744688987732,0.0536699369549751,1713350798.64874
0.364214837551117,0.0665388405323029,1713350798.64985
0.36550971865654,0.0347342565655708,1713350798.74063
0.359245091676712,0.0913766101002693,1713350798.74147
0.369445353746414,-0.016779625788331,1713350798.76874
0.362443596124649,0.0811311081051827,1713350798.76998
0.360888510942459,0.0729660764336586,1713350798.78857
0.368056803941727,0.0746701210737228,1713350798.78959
0.366731613874435,0.0469126664102078,1713350798.81628
0.363779515028,0.0487531647086144,1713350798.81715
0.363792926073074,0.053184699267149,1713350798.86436
0.367114812135696,0.0679881945252419,1713350798.86538
0.367193996906281,0.0641717091202736,1713350798.89728
0.363641977310181,0.0727998092770577,1713350798.89799
0.365008622407913,0.0619348809123039,1713350798.96034
0.365314900875092,0.0722320228815079,1713350798.9615
0.365224063396454,0.0604219138622284,1713350798.97668
0.363721668720245,0.100830651819706,1713350798.97765
0.366125017404556,0.05485849827528,1713350799.0046
0.365884602069855,0.0180131457746029,1713350799.03264
0.365329623222351,0.095623180270195,1713350799.05232
0.368572354316711,0.0944430306553841,1713350799.05358
0.364300131797791,0.0935523808002472,1713350799.0766
0.368217974901199,0.132979348301888,1713350799.07778
0.36504665017128,0.153017625212669,1713350799.11638
0.366176277399063,0.125722855329514,1713350799.11732
0.366516381502151,0.125815838575363,1713350799.17227
0.366445958614349,0.138197585940361,1713350799.17314
0.367718607187271,0.150170981884003,1713350799.22485
0.371630966663361,0.141195252537727,1713350799.22612
0.365481436252594,0.138328418135643,1713350799.24079
0.365777045488358,0.144113585352898,1713350799.24196
0.368305891752243,0.14590522646904,1713350799.27638
0.36203408241272,0.123388856649399,1713350799.27762
0.361585199832916,0.13645426928997,1713350799.34468
0.368960350751877,0.137303039431572,1713350799.34613
0.362871408462524,0.131365656852722,1713350799.37227
0.364231675863266,0.122587971389294,1713350799.37353
0.367929846048355,0.118705995380878,1713350799.40504
0.364552319049835,0.0961265414953232,1713350799.40585
0.364677280187607,0.0858973413705826,1713350799.43655
0.365034013986588,0.0578718855977058,1713350799.43811
0.363682746887207,0.0443823523819447,1713350799.48933
0.363403767347336,0.0466217771172524,1713350799.49108
0.36131027340889,0.0571362935006619,1713350799.53304
0.36040985584259,0.0397195927798748,1713350799.5342
0.358336359262466,0.0506532303988934,1713350799.58136
0.3555908203125,0.0716506242752075,1713350799.60085
0.359113246202469,0.068700946867466,1713350799.60211
0.359617292881012,0.0224485788494349,1713350799.60285
0.369288861751556,-0.0373896323144436,1713350799.64089
0.364089250564575,0.0614556074142456,1713350799.64179
0.35943266749382,0.0317412577569485,1713350799.69632
0.359994769096375,0.0570560470223427,1713350799.69756
0.367662012577057,0.0492985956370831,1713350799.72027
0.363873720169067,0.0914150327444077,1713350799.72153
0.367071986198425,0.114728540182114,1713350799.76839
0.364928096532822,0.0782430246472359,1713350799.76945
0.361345767974854,0.114995487034321,1713350799.82043
0.356665879487991,0.0626708567142487,1713350799.82127
0.357890546321869,0.0549898557364941,1713350799.85623
0.357353001832962,0.0598562881350517,1713350799.85735
0.359590977430344,0.0452487729489803,1713350799.87676
0.363157778978348,0.0654773041605949,1713350799.87797
0.356230705976486,0.0404036901891232,1713350799.92846
0.356585443019867,0.0153641188517213,1713350799.92956
0.361552298069,0.0395372696220875,1713350799.95282
0.358153402805328,0.0391316562891006,1713350799.95405
0.355181187391281,0.0508641637861729,1713350800.00456
0.359981685876846,0.0116779338568449,1713350800.00545
0.352679669857025,0.087831549346447,1713350800.0444
0.355450540781021,0.0746028497815132,1713350800.04551
0.350812643766403,0.0660316795110703,1713350800.08491
0.351593554019928,0.0718971416354179,1713350800.08618
0.360356152057648,0.0971285551786423,1713350800.1405
0.362031877040863,0.0961406826972961,1713350800.14159
0.360526174306869,0.0773382857441902,1713350800.17662
0.362220495939255,0.0715199410915375,1713350800.17785
0.356812536716461,0.096903532743454,1713350800.20455
0.354287534952164,0.105641402304173,1713350800.20618
0.357305586338043,0.0885849297046661,1713350800.25633
0.356939703226089,0.10107384622097,1713350800.25746
0.356823146343231,0.0998054221272469,1713350800.27648
0.36337286233902,0.0823246240615845,1713350800.2776
0.359159260988235,0.0952139645814896,1713350800.33645
0.353927940130234,0.080719918012619,1713350800.33841
0.358132749795914,0.0792294070124626,1713350800.35629
0.360333889722824,0.0891163200139999,1713350800.35705
0.362660616636276,0.0973565503954887,1713350800.40489
0.361891329288483,0.0707016512751579,1713350800.40648
0.363764435052872,0.0878431797027588,1713350800.4527
0.361131846904755,0.0945147201418877,1713350800.45456
0.358925551176071,0.100678332149982,1713350800.48076
0.362919986248016,0.0973047241568565,1713350800.48197
0.361593455076218,0.107620567083359,1713350800.54094
0.365949183702469,0.0890602618455887,1713350800.54206
0.364613056182861,0.110439799726009,1713350800.55667
0.367295980453491,0.0942004173994064,1713350800.55798
0.366265118122101,0.113790906965733,1713350800.61239
0.361009269952774,0.12928806245327,1713350800.61363
0.365485638380051,0.117671675980091,1713350800.63626
0.368599891662598,0.0963618010282517,1713350800.6373
0.366932928562164,0.101245447993279,1713350800.73638
0.369245320558548,0.106953777372837,1713350800.73756
0.368933290243149,0.12007861584425,1713350800.7885
0.366037666797638,0.108339570462704,1713350800.78934
0.365948259830475,0.116963781416416,1713350800.81266
0.370812773704529,0.118037529289722,1713350800.81393
0.367819964885712,0.11064188927412,1713350800.8406
0.365451216697693,0.107439160346985,1713350800.84223
0.369403749704361,0.140099093317986,1713350800.89241
0.369119703769684,0.0682539418339729,1713350800.89345
0.369595259428024,0.141918674111366,1713350800.91638
0.365175843238831,0.168104991316795,1713350800.91726
0.368528544902802,0.189031988382339,1713350800.94446
0.370682716369629,0.176788195967674,1713350800.9456
0.370340466499329,0.187123700976372,1713350800.96469
0.368398517370224,0.170907869935036,1713350800.96585
0.366465091705322,0.178190425038338,1713350801.01244
0.371615350246429,0.183885917067528,1713350801.01358
0.367432206869125,0.185590252280235,1713350801.0324
0.369464933872223,0.182027399539948,1713350801.03363
0.368326544761658,0.16550812125206,1713350801.09741
0.369412213563919,0.165243342518806,1713350801.09801
0.367826521396637,0.163815915584564,1713350801.12041
0.368886709213257,0.175804063677788,1713350801.12145
0.369036942720413,0.162972331047058,1713350801.16878
0.368725299835205,0.149928361177444,1713350801.16982
0.368158280849457,0.140754401683807,1713350801.20059
0.368143558502197,0.118637964129448,1713350801.20182
0.367321759462357,0.112891264259815,1713350801.32864
0.366314589977264,0.122982427477837,1713350801.33038
0.364246010780334,0.0926822572946548,1713350801.34843
0.361714392900467,0.111738808453083,1713350801.34919
0.365816205739975,0.0871762037277222,1713350801.37235
0.36603856086731,0.100116550922394,1713350801.37356
0.360179215669632,0.161679089069366,1713350801.39653
0.366287142038345,0.131152659654617,1713350801.39788
0.361029177904129,0.0346952155232429,1713350801.42446
0.365653723478317,0.0982921123504639,1713350801.42568
0.371296226978302,0.0904795676469803,1713350801.45656
0.362271159887314,0.0770440772175789,1713350801.45757
0.366011172533035,0.127141579985619,1713350801.52463
0.366016119718552,0.137628689408302,1713350801.5257
0.36832669377327,0.135437786579132,1713350801.55262
0.367704331874847,0.11355497688055,1713350801.55395
0.37001371383667,0.114288598299026,1713350801.57644
0.369070738554001,0.126091733574867,1713350801.57786
0.364101380109787,0.125114008784294,1713350801.60457
0.363595366477966,0.121646732091904,1713350801.60565
0.364468634128571,0.118992276489735,1713350801.6527
0.363559395074844,0.0926431193947792,1713350801.65401
0.365616083145142,0.109247632324696,1713350801.67685
0.362981379032135,0.103884138166904,1713350801.678
0.366236358880997,0.0911989510059357,1713350801.73647
0.367936372756958,0.110068038105965,1713350801.73778
0.368164002895355,0.123623877763748,1713350801.76471
0.359496802091598,0.109421446919441,1713350801.7881
0.365143775939941,0.115609720349312,1713350801.81648
0.367363572120666,0.0880397409200668,1713350801.81766
0.357272416353226,0.150504767894745,1713350801.85284
0.367023646831512,0.0966295674443245,1713350801.85413
0.366474717855453,0.12866036593914,1713350801.88053
0.364921867847443,0.0941941142082214,1713350801.88142
0.366182863712311,0.148682147264481,1713350801.92437
0.364772528409958,0.136872962117195,1713350801.92504
0.367380499839783,0.143495455384254,1713350801.97263
0.365938305854797,0.134994432330132,1713350801.97392
0.365658760070801,0.083420492708683,1713350802.00028
0.364174902439117,0.150336384773254,1713350802.00106
0.368044018745422,0.167416661977768,1713350802.05286
0.365691334009171,0.143231973052025,1713350802.05383
0.366140365600586,0.154236137866974,1713350802.08085
0.367007941007614,0.121893391013145,1713350802.08198
0.364159941673279,0.151435896754265,1713350802.12468
0.365218937397003,0.142020180821419,1713350802.12588
0.361612319946289,0.148371025919914,1713350802.17285
0.370183259248734,0.144350424408913,1713350802.17428
0.36618247628212,0.167928919196129,1713350802.19679
0.366270124912262,0.151339590549469,1713350802.1981
0.367658913135529,0.119511693716049,1713350802.25691
0.369031369686127,0.170292913913727,1713350802.25798
0.366047412157059,0.15829062461853,1713350802.28471
0.364858478307724,0.152481183409691,1713350802.28596
0.368072867393494,0.15956799685955,1713350802.32085
0.367653548717499,0.150052264332771,1713350802.34821
0.364949911832809,0.155659720301628,1713350802.37285
0.366037994623184,0.122375406324863,1713350802.37386
0.367668509483337,0.172591000795364,1713350802.39246
0.363407224416733,0.16198305785656,1713350802.39365
0.369871646165848,0.145465567708015,1713350802.43684
0.368041396141052,0.174180701375008,1713350802.43804
0.368306785821915,0.163440451025963,1713350802.50055
0.370737195014954,0.15854512155056,1713350802.50175
0.369923174381256,0.14899155497551,1713350802.53419
0.369091629981995,0.153495505452156,1713350802.5351
0.369948178529739,0.162602871656418,1713350802.55259
0.372587978839874,0.167029514908791,1713350802.55388
0.367122322320938,0.141689628362656,1713350802.58916
0.367120295763016,0.162754192948341,1713350802.59038
0.368737131357193,0.158839762210846,1713350802.64078
0.367437571287155,0.156864926218987,1713350802.64204
0.370920240879059,0.15587854385376,1713350802.68047
0.369486808776855,0.17293992638588,1713350802.68131
0.36791855096817,0.172457814216614,1713350802.72088
0.37119847536087,0.176985085010529,1713350802.72191
0.366405338048935,0.176447540521622,1713350802.76434
0.368519604206085,0.191877961158752,1713350802.76544
0.368721634149551,0.200881138443947,1713350802.80865
0.369818955659866,0.200459182262421,1713350802.80979
0.368376076221466,0.190142571926117,1713350802.8566
0.367160201072693,0.193834766745567,1713350802.85768
0.366152912378311,0.196406096220016,1713350802.88017
0.368206262588501,0.197864294052124,1713350802.90832
0.363849341869354,0.196529567241669,1713350802.91646
0.365077435970306,0.190947353839874,1713350802.9173
0.365153968334198,0.192110568284988,1713350802.97227
0.367321282625198,0.18695493042469,1713350802.97337
0.366718709468842,0.194467708468437,1713350803.02107
0.364521741867065,0.188242599368095,1713350803.02213
0.364000409841537,0.19434817135334,1713350803.04891
0.366539150476456,0.182297557592392,1713350803.05042
0.36620756983757,0.18355992436409,1713350803.09303
0.363026082515717,0.168834239244461,1713350803.09423
0.364343523979187,0.155545875430107,1713350803.11229
0.360707372426987,0.16650927066803,1713350803.11341
0.364238083362579,0.156612351536751,1713350803.18072
0.360278129577637,0.162561327219009,1713350803.18192
0.359652489423752,0.164696082472801,1713350803.20474
0.354260146617889,0.137497812509537,1713350803.20563
0.358333468437195,0.161951765418053,1713350803.24102
0.363427102565765,0.172369629144669,1713350803.24222
0.35831481218338,0.1200155839324,1713350803.28459
0.35569441318512,0.160017356276512,1713350803.28584
0.354754567146301,0.135613083839417,1713350803.33634
0.359610736370087,0.154540255665779,1713350803.33752
0.360212236642838,0.161180973052979,1713350803.35695
0.364478141069412,0.136429741978645,1713350803.35828
0.362154334783554,0.161145105957985,1713350803.42442
0.357038021087646,0.141947582364082,1713350803.42557
0.36342853307724,0.158226877450943,1713350803.45259
0.361008167266846,0.14877162873745,1713350803.46484
0.359458804130554,0.176758721470833,1713350803.50468
0.364207297563553,0.163380399346352,1713350803.50592
0.362084180116653,0.156252667307854,1713350803.52843
0.35632312297821,0.106093943119049,1713350803.52954
0.362799823284149,0.177116587758064,1713350803.55692
0.36246782541275,0.117682978510857,1713350803.55804
0.35944938659668,0.173812553286552,1713350803.60036
0.359030067920685,0.172050759196281,1713350803.60132
0.357169687747955,0.133577093482018,1713350803.65297
0.363685101270676,0.108861975371838,1713350803.65413
0.357253670692444,0.165744200348854,1713350803.70503
0.356004148721695,0.163769513368607,1713350803.70634
0.360902786254883,0.112642303109169,1713350803.72848
0.359572380781174,0.13389153778553,1713350803.7299
0.354989290237427,0.181606873869896,1713350803.75692
0.363757640123367,0.190775945782661,1713350803.75801
0.359072387218475,0.166743278503418,1713350803.82854
0.358138173818588,0.17437706887722,1713350803.82961
0.363578915596008,0.170816853642464,1713350803.85272
0.359360963106155,0.184174209833145,1713350803.85409
0.361696928739548,0.149032667279243,1713350803.87697
0.355897605419159,0.180640310049057,1713350803.87831
0.359134495258331,0.147867560386658,1713350803.91722
0.360776871442795,0.177369013428688,1713350803.91807
0.364785522222519,0.175677850842476,1713350803.96847
0.360687762498856,0.180651843547821,1713350803.96975
0.361855745315552,0.175076365470886,1713350804.06049
0.359608113765717,0.160002127289772,1713350804.0618
0.359378516674042,0.185986384749413,1713350804.07251
0.362046152353287,0.179871916770935,1713350804.07362
0.360964953899384,0.183869332075119,1713350804.08076
0.35924431681633,0.189791142940521,1713350804.08185
0.359317541122437,0.182841688394547,1713350804.14047
0.359314173460007,0.179389521479607,1713350804.14154
0.357124149799347,0.19225986301899,1713350804.18866
0.361271619796753,0.186890125274658,1713350804.18931
0.359551042318344,0.1921356767416,1713350804.2164
0.357190787792206,0.183642581105232,1713350804.21754
0.360103040933609,0.18097522854805,1713350804.24885
0.359793305397034,0.18858377635479,1713350804.25004
0.363338679075241,0.190727233886719,1713350804.30867
0.359059780836105,0.191600441932678,1713350804.30983
0.361914396286011,0.190168246626854,1713350804.33392
0.358298003673553,0.193305492401123,1713350804.33474
0.359900623559952,0.191068038344383,1713350804.36042
0.360800385475159,0.179333508014679,1713350804.3618
0.359192937612534,0.185563236474991,1713350804.393
0.36463263630867,0.179862305521965,1713350804.39488
0.363575667142868,0.1929070353508,1713350804.43646
0.364961594343185,0.186649233102798,1713350804.43839
0.366256415843964,0.189781725406647,1713350804.48454
0.36759677529335,0.158896401524544,1713350804.4857
0.36745423078537,0.134067043662071,1713350804.51669
0.369031608104706,0.099253736436367,1713350804.51792
0.364909470081329,0.186522543430328,1713350804.60489
0.366022169589996,0.180075347423553,1713350804.60591
0.367986917495728,0.188780963420868,1713350804.64052
0.366463035345078,0.184987172484398,1713350804.64159
0.367875605821609,0.188007712364197,1713350804.68441
0.369344770908356,0.178670138120651,1713350804.68549
0.367927968502045,0.176091492176056,1713350804.70861
0.368241161108017,0.163080602884293,1713350804.70979
0.364506453275681,0.166657984256744,1713350804.78031
0.367606967687607,0.191365659236908,1713350804.78151
0.366872191429138,0.194995924830437,1713350804.80511
0.367759197950363,0.18806666135788,1713350804.80623
0.367160528898239,0.18692184984684,1713350804.833
0.371604770421982,0.163844913244247,1713350804.83384
0.361762225627899,0.160159051418304,1713350804.86046
0.35980561375618,0.187781348824501,1713350804.86161
0.36493980884552,0.160123437643051,1713350804.88839
0.359802484512329,0.191321954131126,1713350804.88947
0.367003083229065,0.15770822763443,1713350804.91248
0.363772749900818,0.174550548195839,1713350804.91335
0.367608070373535,0.176995038986206,1713350804.96099
0.363544017076492,0.185398936271667,1713350804.96191
0.368612885475159,0.156665444374084,1713350805.01627
0.36592909693718,0.166254729032516,1713350805.01701
0.359362661838531,0.168877884745598,1713350805.04431
0.367585092782974,0.158123448491097,1713350805.04525
0.364699751138687,0.161646828055382,1713350805.08871
0.366533070802689,0.139576077461243,1713350805.08994
0.357089847326279,0.11102033406496,1713350805.14441
0.366419166326523,0.144169494509697,1713350805.14585
0.365666896104813,0.155073910951614,1713350805.16437
0.367117017507553,0.149593621492386,1713350805.16564
0.366722047328949,0.183469146490097,1713350805.19245
0.370174318552017,0.156752660870552,1713350805.1933
0.36506587266922,0.165891051292419,1713350805.24432
0.368081152439117,0.175571352243423,1713350805.24554
0.368087023496628,0.190013378858566,1713350805.34045
0.368876516819,0.163253322243691,1713350805.34118
0.363821685314178,0.173100754618645,1713350805.39253
0.366116315126419,0.184407845139503,1713350805.39371
0.365160882472992,0.187287554144859,1713350805.4167
0.362289428710937,0.18846121430397,1713350805.41786
0.368715673685074,0.190546974539757,1713350805.45238
0.367560088634491,0.181982919573784,1713350805.45369
0.369664490222931,0.182479977607727,1713350805.47274
0.364632725715637,0.178776249289513,1713350805.47423
0.368793576955795,0.177068173885345,1713350805.50062
0.370332777500153,0.185983464121819,1713350805.50182
0.366904348134994,0.194360047578812,1713350805.52477
0.367516160011291,0.178076133131981,1713350805.52604
0.367520898580551,0.186853960156441,1713350805.57242
0.368001133203506,0.195004761219025,1713350805.57413
0.36358979344368,0.199924856424332,1713350805.62459
0.366793245077133,0.20129719376564,1713350805.62554
0.366779685020447,0.192723855376244,1713350805.64907
0.365256726741791,0.195606738328934,1713350805.67228
0.366829752922058,0.181657791137695,1713350805.7243
0.363859444856644,0.19157101213932,1713350805.72544
0.366103380918503,0.197676688432693,1713350805.76066
0.359669059514999,0.195151656866074,1713350805.76198
0.363177269697189,0.190527260303497,1713350805.77664
0.362656444311142,0.194972172379494,1713350805.77757
0.36466109752655,0.193805530667305,1713350805.80562
0.367364197969437,0.195937588810921,1713350805.80611
0.364908039569855,0.190868884325027,1713350805.82849
0.363379776477814,0.182215720415115,1713350805.82976
0.359344959259033,0.184299990534782,1713350805.88046
0.363737493753433,0.195628523826599,1713350805.88159
0.361064970493317,0.182641431689262,1713350805.93666
0.366000235080719,0.193276062607765,1713350805.93787
0.370049387216568,0.188032433390617,1713350805.96477
0.364652544260025,0.18515083193779,1713350805.96594
0.366294890642166,0.176853343844414,1713350806.00899
0.368150562047958,0.188014253973961,1713350806.00974
0.366680979728699,0.185744404792786,1713350806.05691
0.365568518638611,0.191935077309608,1713350806.05797
0.366521000862122,0.191768571734428,1713350806.11354
0.366873890161514,0.184193059802055,1713350806.114
0.361613124608994,0.186326041817665,1713350806.12851
0.365765511989593,0.194419860839844,1713350806.12981
0.369420289993286,0.18530710041523,1713350806.16033
0.363341271877289,0.188158601522446,1713350806.16138
0.363134801387787,0.181491285562515,1713350806.21641
0.366018623113632,0.193373277783394,1713350806.24435
0.366397500038147,0.185681462287903,1713350806.26453
0.366594046354294,0.192319631576538,1713350806.26568
0.363077193498611,0.186807811260223,1713350806.2924
0.36962166428566,0.19560481607914,1713350806.2938
0.366017699241638,0.180806905031204,1713350806.31247
0.367498606443405,0.192006811499596,1713350806.31389
0.365030825138092,0.177102982997894,1713350806.36462
0.364515841007233,0.188515603542328,1713350806.36577
0.365850508213043,0.176879152655602,1713350806.44866
0.36748394370079,0.185027554631233,1713350806.45002
0.367276161909103,0.185442253947258,1713350806.47288
0.366091787815094,0.190398365259171,1713350806.47419
0.363456189632416,0.179162725806236,1713350806.49673
0.368732273578644,0.190949410200119,1713350806.49774
