harmstring,cuadriceps,t
-0.000202301162062213,-0.00280841626226902,1713350763.72179
-0.000270576303591952,-0.00280692568048835,1713350763.72283
-0.000200714493985288,-0.00280339177697897,1713350763.7645
-0.000280048290733248,-0.00280363205820322,1713350763.76606
-0.000275696947937831,-0.00280632474459708,1713350763.78084
-0.000204248455702327,-0.00279649207368493,1713350763.78195
-0.000404626363888383,-0.00280387257225811,1713350763.84025
-0.000204512893105857,-0.00279656425118446,1713350763.84129
-0.000254397018579766,-0.00280127627775073,1713350763.86873
-0.000205883203307167,-0.00278718839399517,1713350763.86999
-0.000200666414457373,-0.00279257353395224,1713350763.89676
-0.000311060575768352,-0.00279144360683858,1713350763.89803
-0.00018984817143064,-0.00278947222977877,1713350763.9405
-0.000280697393463925,-0.00279089063405991,1713350763.94151
-0.000282596593024209,-0.00277550471946597,1713350764.01275
-0.000177563444594853,-0.00278620282188058,1713350764.01371
-0.000185496828635223,-0.00277531240135431,1713350764.02849
-0.000194872642168775,-0.00277204299345613,1713350764.02985
-0.000322047126246616,-0.0027824763674289,1713350764.05716
-0.000130323780467734,-0.00278057716786861,1713350764.05789
-0.000188934631296434,-0.00277983210980892,1713350764.12045
-0.000219057430513203,-0.00279384758323431,1713350764.12188
-0.000155181711306795,-0.00277213915251195,1713350764.14028
-0.00021009030751884,-0.00276538357138634,1713350764.14148
-0.000326109962770715,-0.00276949466206133,1713350764.24042
-0.000211027887417004,-0.00276509509421885,1713350764.24123
-0.000133328852825798,-0.00275026215240359,1713350764.26122
-9.33253904804587E-05,-0.00276721082627773,1713350764.26195
-0.000273797748377547,-0.00276692234911025,1713350764.27662
-0.00011476955114631,-0.00276047945953906,1713350764.27802
-0.000178717396920547,-0.00274646375328302,1713350764.29664
-0.000182996605872177,-0.0027577867731452,1713350764.29746
-0.000113086716737598,-0.00274817063473165,1713350764.33658
-0.000127342762425542,-0.00272227893583477,1713350764.33811
-0.00026362860808149,-0.00273331347852945,1713350764.37238
-0.000221100868657231,-0.00273913145065308,1713350764.37358
-0.000200329843210056,-0.00271504279226065,1713350764.42077
-0.000145878017065115,-0.00272660632617772,1713350764.42215
-0.000178236587089486,-0.00273518869653344,1713350764.47233
-9.5633280579932E-05,-0.00273295305669308,1713350764.47358
-0.000177924055606127,-0.00273163081146777,1713350764.5045
-0.000217302469536662,-0.0027285295072943,1713350764.50572
-3.33201933244709E-05,-0.00271626887843013,1713350764.57701
-0.00027103308821097,-0.00272263959050179,1713350764.57865
2.5867624572129E-05,-0.00271929800510406,1713350764.60501
-0.000125155071145855,-0.00272384169511497,1713350764.60614
-3.72868817066774E-05,-0.00271751894615591,1713350764.65727
-4.81772476632614E-05,-0.00271819205954671,1713350764.6579
-4.33210589108057E-05,-0.00273189507424831,1713350764.69681
-0.000217302469536662,-0.00270410440862179,1713350764.69814
-2.99304756481433E-05,-0.00272011524066329,1713350764.70469
-4.79608825116884E-05,-0.00272675044834614,1713350764.78444
-6.62076563457958E-05,-0.00271631684154272,1713350764.81685
-0.000152080479892902,-0.00272444263100624,1713350764.81807
-0.000136261791340075,-0.00275612808763981,1713350764.88065
-0.000126092651044019,-0.00275196903385222,1713350764.88201
-0.000119433418149129,-0.00279007339850068,1713350764.90043
-0.000118207346531563,-0.00274230469949543,1713350764.90166
-0.000122029792692047,-0.00276230648159981,1713350764.92865
-0.000126116690807976,-0.00285462220199406,1713350764.92991
-0.000148690756759606,-0.00271910568699241,1713350764.95427
-0.000162922762683593,-0.00273646297864616,1713350764.95492
-0.000176289308001287,-0.00271506677381694,1713350764.98078
-0.000179558817762882,-0.00272081256844103,1713350764.98275
-0.000168980972375721,-0.00273872260004282,1713350765.06079
-0.000163283373694867,-0.00274059781804681,1713350765.06194
-0.000170615734532475,-0.00272052409127355,1713350765.08887
-0.000175303634023294,-0.00271470611914992,1713350765.08999
-0.00019306960166432,-0.00269581028260291,1713350765.10519
-0.000190449180081487,-0.00270215701311827,1713350765.10568
-0.000191290600923821,-0.0027083836030215,1713350765.1324
-0.000191002109204419,-0.00272191828116775,1713350765.13336
-0.000173789085238241,-0.00275620026513934,1713350765.18487
-0.000165807621669956,-0.00275442120619118,1713350765.18612
-0.000148955208715051,-0.00276196980848908,1713350765.21255
-0.000137608061777428,-0.00276564806699753,1713350765.21312
-0.000114024296635762,-0.00276692234911025,1713350765.23711
-0.000122390410979278,-0.00276639335788786,1713350765.2384
-0.000118928568554111,-0.00279036187566817,1713350765.28901
-0.000111764486064203,-0.00278668361715972,1713350765.30844
-0.00010592263424769,-0.00281312805600464,1713350765.33682
-0.000102028061519377,-0.00279365526512265,1713350765.33777
-0.000104119593743235,-0.00282211927697062,1713350765.36092
-9.94557267404161E-05,-0.0028268073219806,1713350765.36199
-6.71692760079168E-05,-0.0028219751548022,1713350765.38851
-0.000119625743536744,-0.00282526854425669,1713350765.38938
-7.02464676578529E-05,-0.00280517083592713,1713350765.41233
-8.9406777988188E-05,-0.00279954518191516,1713350765.41341
-0.000113086716737598,-0.00276151322759688,1713350765.49262
-0.000143089317134582,-0.00277737993746996,1713350765.49386
-3.18296770274173E-05,-0.00280170887708664,1713350765.51649
-9.09213340491988E-05,-0.00279031367972493,1713350765.51767
-0.000229202531045303,-0.00278444774448872,1713350765.55644
-0.000263292022282258,-0.0027856738306582,1713350765.55771
2.62041921814671E-05,-0.00275995046831667,1713350765.58033
-0.000105177372461185,-0.00273802550509572,1713350765.5818
-0.000298944156384096,-0.00275355577468872,1713350765.62879
-5.85387206228916E-05,-0.0027330971788615,1713350765.63067
-0.000211051927180961,-0.0027120616286993,1713350765.68044
6.56066404189914E-05,-0.0026782366912812,1713350765.68157
1.01210689535947E-05,-0.00268806936219335,1713350765.70853
-0.000154244116856717,-0.00273261638358235,1713350765.7096
0.000144147095852532,-0.00271408120170236,1713350765.75661
2.33433675020933E-05,-0.00274692056700587,1713350765.75726
-5.76251804886851E-05,-0.00271836039610207,1713350765.78079
-6.61114900140092E-05,-0.00272321654483676,1713350765.78203
8.53439269121736E-06,-0.0027159561868757,1713350765.82835
-5.44758695468772E-05,-0.00272126914933324,1713350765.86048
-8.93586984602734E-05,-0.00276288343593478,1713350765.86199
-1.7477474102634E-05,-0.00278012058697641,1713350765.86304
0.000153955639689229,-0.00280218967236578,1713350765.91328
-3.44500986102503E-05,-0.00278415926732123,1713350765.91402
-7.00301025062799E-05,-0.00277990405447781,1713350765.93722
-7.27707229088992E-05,-0.00274980533868074,1713350765.93873
-7.59681133786216E-05,-0.00274466071277857,1713350765.97238
-0.000400900084059686,-0.00277028791606426,1713350765.97308
-8.41419023345225E-06,-0.00277834152802825,1713350766.00882
-8.63536333781667E-05,-0.00275415671057999,1713350766.01051
-0.000101547251688316,-0.00288104265928268,1713350766.10073
-6.92608009558171E-05,-0.00278343819081783,1713350766.10155
-9.51284309849143E-05,-0.00278831832110882,1713350766.12058
-7.56555891712196E-05,-0.00280557945370674,1713350766.12165
-4.71675448352471E-05,-0.00276050344109535,1713350766.15265
-1.73572716448689E-05,-0.00280377641320229,1713350766.15397
1.54580684466055E-05,-0.0028589975554496,1713350766.17693
3.70945563190617E-05,-0.00280844024382532,1713350766.17821
4.74800726806279E-05,-0.00282418681308627,1713350766.22108
4.9547557864571E-05,-0.00284466939046979,1713350766.22243
2.75023812719155E-05,-0.0028405343182385,1713350766.25275
-5.88993316341657E-06,-0.00283719273284078,1713350766.25383
-4.82974501210265E-05,-0.00283409142866731,1713350766.329
-7.39006281946786E-05,-0.00283147115260363,1713350766.33069
-8.89980874489993E-05,-0.00283966888673604,1713350766.35717
-7.62325580581091E-05,-0.00284334714524448,1713350766.35815
-8.18580519990064E-05,-0.00283445208333433,1713350766.45221
-7.35881039872765E-05,-0.00283909193240106,1713350766.453
-8.14974409877323E-05,-0.00283579831011593,1713350766.47635
-2.16605294554029E-05,-0.00282570137642324,1713350766.47739
-1.25972446767264E-05,-0.00283099035732448,1713350766.5005
-2.32231650443282E-05,-0.00283870729617774,1713350766.50179
-0.000105057173641399,-0.00285390089266002,1713350766.52441
-0.000127631239593029,-0.00287080137059093,1713350766.52517
-0.000126309008919634,-0.00289347162470222,1713350766.56053
-0.000120851807878353,-0.00289513054303825,1713350766.56166
-0.000116452392830979,-0.00286041595973074,1713350766.59268
-0.000133809662656859,-0.00282250391319394,1713350766.59461
-0.000150397638208233,-0.00280036265030503,1713350766.60886
-0.00015099864685908,-0.00279329461045563,1713350766.61016
-0.00014746468514204,-0.00279593910090625,1713350766.64839
-0.00014222385652829,-0.00280411285348237,1713350766.64952
-0.000138136965688318,-0.00282368203625083,1713350766.76077
-0.000137487862957641,-0.00283639947883785,1713350766.76184
-0.000132198940264061,-0.00284584728069603,1713350766.78482
-0.00012907366908621,-0.00285166525281966,1713350766.78599
-0.000113904090540018,-0.00286741182208061,1713350766.80495
-0.000114457026938908,-0.00287407101131976,1713350766.80588
-0.00011178852582816,-0.00287839816883206,1713350766.8324
-0.000108591135358438,-0.00288472091779113,1713350766.83324
-0.000105201412225142,-0.00290448218584061,1713350766.88852
-0.000108494969026651,-0.0029070065356791,1713350766.8894
-0.000114961876533926,-0.00292126252315938,1713350766.93669
-0.000114841670438182,-0.00293075852096081,1713350766.93796
-0.000109071945189498,-0.00293369148857892,1713350766.96104
-0.000110610541014466,-0.0029394612647593,1713350766.96214
-0.000108374770206865,-0.00294578378088772,1713350766.99229
-0.000115899456432089,-0.00295328442007303,1713350766.99338
-0.000115394606837071,-0.00295042362995446,1713350767.01658
-0.000104263832326978,-0.0029410959687084,1713350767.01782
-0.000115923496196046,-0.00292448396794498,1713350767.06856
-0.000108086278487463,-0.00290789594873786,1713350767.0698
-0.000122149998787791,-0.00290892971679568,1713350767.09629
-0.000123640507808886,-0.002897895174101,1713350767.09694
-0.000121452823805157,-0.00292455614544451,1713350767.13682
-0.000110826906166039,-0.00285726669244468,1713350767.13791
-0.000178260626853444,-0.00289452937431633,1713350767.21277
-0.00019910377159249,-0.00289727002382278,1713350767.21403
-0.00010063371155411,-0.00287407101131976,1713350767.26076
-8.83489919942804E-05,-0.0028752728831023,1713350767.26186
-0.000134290472487919,-0.00290106842294335,1713350767.28859
-0.000569015624932945,-0.00289844814687967,1713350767.28974
5.55336555407848E-06,-0.0028978711925447,1713350767.33697
-3.03872457152465E-05,-0.00289984233677387,1713350767.33794
-0.000230452642426826,-0.00291231949813664,1713350767.34473
-0.000228721721214242,-0.00289022619836032,1713350767.34605
7.41891126381233E-05,-0.00289294286631048,1713350767.38875
-3.70224370271899E-05,-0.00289505836553872,1713350767.39
-0.000115707131044474,-0.0028722919523716,1713350767.45251
-0.000202469454961829,-0.00286034378223121,1713350767.4538
2.79591513390187E-05,-0.00288659613579512,1713350767.49633
-0.000312767457216978,-0.00289813545532525,1713350767.4971
-0.000117245726869442,-0.00283947656862438,1713350767.54039
-9.51765105128288E-05,-0.00286933500319719,1713350767.54147
-2.00017311726697E-05,-0.00287380651570857,1713350767.6046
-0.000183092779479921,-0.00289659691043198,1713350767.60603
-0.000210138387046754,-0.00287697976455092,1713350767.62879
-4.1830546251731E-05,-0.00287048891186714,1713350767.6297
-9.95759255602025E-05,-0.00283901975490153,1713350767.65238
-0.000127871651784517,-0.00287633086554706,1713350767.65331
-0.000132872082758695,-0.00287017645314336,1713350767.6885
-0.000123568388517015,-0.00287553737871349,1713350767.68946
-0.000151166939758696,-0.00285584828816354,1713350767.70104
-0.00012246253027115,-0.00290034734643996,1713350767.70249
-0.000129626612761058,-0.00288347085006535,1713350767.78099
-0.00012224615784362,-0.00287928781472147,1713350767.78212
-0.00013868989481125,-0.00286414218135178,1713350767.84075
-0.000102869482361712,-0.0028768596239388,1713350767.84199
-8.37812913232483E-05,-0.00288880779407918,1713350767.88876
-4.6061679313425E-05,-0.0028839516453445,1713350767.89006
-6.07504516665358E-05,-0.00290215038694441,1713350767.92053
-4.51240994152613E-05,-0.00287734041921794,1713350767.92165
-3.40654478350189E-05,-0.00287238811142743,1713350767.9694
-1.31501765281428E-05,-0.00286493543535471,1713350767.96987
2.64445958464421E-07,-0.00287854252383113,1713350767.97649
1.74053529917728E-05,-0.00287395063787699,1713350767.97776
1.61071639013244E-05,-0.00289025017991662,1713350768.02846
-1.56503938342212E-05,-0.00288335070945323,1713350768.02939
-5.41873851034325E-05,-0.00288048968650401,1713350768.05269
-0.000110201850475278,-0.00288116279989481,1713350768.08059
-0.000135973314172588,-0.00289013003930449,1713350768.10064
-0.000145781858009286,-0.00288787018507719,1713350768.10171
-0.000117726536700502,-0.00287678744643927,1713350768.14466
-0.000123279911349528,-0.00287972041405737,1713350768.14588
-0.000110802859126125,-0.00286873383447528,1713350768.22061
-7.41891126381233E-05,-0.0028451019898057,1713350768.22154
-8.9094253780786E-05,-0.00285130459815264,1713350768.2405
-0.000126669619930908,-0.00285719451494515,1713350768.24152
-0.000171937965205871,-0.00286188232712448,1713350768.26889
-0.000189319282071665,-0.00286830123513937,1713350768.27024
-0.000168980972375721,-0.00286330073140562,1713350768.32436
-0.000184943899512291,-0.00285305944271386,1713350768.32536
-0.000193526371731423,-0.00285084778442979,1713350768.37284
-0.000210523037821986,-0.00283233658410609,1713350768.3738
-0.00020311854314059,-0.00283606280572712,1713350768.38031
-0.000192925363080576,-0.00285327597521245,1713350768.38162
-0.000182996605872177,-0.00286421435885131,1713350768.40474
-0.000188165329745971,-0.00285712233744562,1713350768.40699
-0.00019677184172906,-0.002851472934708,1713350768.42451
-0.000194656269741245,-0.0028428181540221,1713350768.42518
-0.000187323908903636,-0.00284380395896733,1713350768.45718
-0.000185665106982924,-0.00286296429112554,1713350768.45832
-0.000187564321095124,-0.00287767709232867,1713350768.49281
-0.000183477430255152,-0.00289914524182677,1713350768.49404
-0.00018287640705239,-0.00290852109901607,1713350768.5448
-0.000183765907422639,-0.00291284825652838,1713350768.54606
-0.000184679447556846,-0.00291337724775076,1713350768.5805
-0.000187347948667593,-0.0029140985570848,1713350768.58859
-0.000184342876309529,-0.00291215116158128,1713350768.62476
-0.000179847294930369,-0.00291688716970384,1713350768.62593
-0.00017758748435881,-0.00291957962326705,1713350768.65673
-0.000161672651302069,-0.00291691115126014,1713350768.65794
-0.000183357216883451,-0.00291645433753729,1713350768.69407
-0.000180592556716874,-0.00290755950845778,1713350768.69521
-0.000185568947927095,-0.00290239066816866,1713350768.73704
-0.00017035128257703,-0.00288520171307027,1713350768.73807
-0.000188814417924732,-0.0028836871497333,1713350768.78862
-0.000196627603145316,-0.00288351881317794,1713350768.78983
-0.000186530567589216,-0.00288443244062364,1713350768.83352
-0.000188501900993288,-0.00288274954073131,1713350768.83409
-0.000193430212675594,-0.00287133036181331,1713350768.86067
-0.000161792850121856,-0.00285224220715463,1713350768.86255
-0.000159172428539023,-0.00286171422339976,1713350768.89246
-0.000221629758016206,-0.00284853996708989,1713350768.89359
-0.000450543826445937,-0.00283558201044798,1713350768.98479
-9.35417556320317E-05,-0.00282113370485604,1713350768.98598
-0.000384336162824184,-0.00283781788311899,1713350769.00448
-0.000389552966225892,-0.00284878024831414,1713350769.00543
-0.000111716406536289,-0.00276295561343431,1713350769.04043
-0.000471723527880386,-0.00283613498322666,1713350769.04135
0.000135179972858168,-0.00279879989102483,1713350769.10455
-0.000185785320354626,-0.00276812422089279,1713350769.10586
-0.000216917818761431,-0.00288291787728667,1713350769.12894
-0.000102316553238779,-0.00282709579914808,1713350769.12978
-9.85902661341243E-05,-0.00278992904350162,1713350769.16136
-0.00018318893853575,-0.0028019011951983,1713350769.16861
-0.000135756941745058,-0.00279711722396314,1713350769.20465
-0.000154845140059479,-0.00278923194855452,1713350769.20584
-0.000111932764411904,-0.00280089164152741,1713350769.22847
-0.000180304064997472,-0.0028142579831183,1713350769.2297
-0.000222399059566669,-0.00283346651121974,1713350769.24877
-0.000201219343580306,-0.00278081768192351,1713350769.24975
-0.000141142023494467,-0.00285250646993518,1713350769.33687
-0.000253002683166414,-0.00281156552955508,1713350769.33825
-0.000120755648822524,-0.00280286278575659,1713350769.35291
-0.000193694650079124,-0.00279906438663602,1713350769.35408
-0.000204681186005473,-0.00281163770705461,1713350769.38135
-0.000221918249735609,-0.0027979826554656,1713350769.38261
-0.000358059856807813,-0.00285414140671492,1713350769.43301
-0.000170904226251878,-0.00280581973493099,1713350769.43397
-0.00018287640705239,-0.00281072407960892,1713350769.4848
-0.000161480333190411,-0.00283317803405225,1713350769.48616
-0.000145950136356987,-0.00280569959431887,1713350769.50838
-0.000144579826155677,-0.00281521980650723,1713350769.50958
-0.000141286276630126,-0.00280973850749433,1713350769.53679
-0.000124265570775606,-0.00279367947950959,1713350769.53824
-0.00011452914623078,-0.0027988962829113,1713350769.58436
-7.99588451627642E-05,-0.00282276840880513,1713350769.58501
-7.43333584978245E-05,-0.00281942682340741,1713350769.60852
-8.0247329606209E-05,-0.0028213020414114,1713350769.60951
-9.41668040468358E-05,-0.00281043560244143,1713350769.66079
-0.000138786053867079,-0.00281690247356892,1713350769.66196
-0.000168379963724874,-0.00282276840880513,1713350769.73645
-0.000223577051656321,-0.00283423578366637,1713350769.73729
-0.00018720371008385,-0.00283303367905319,1713350769.76042
-0.000263388181338087,-0.00286796456202865,1713350769.7611
-0.000241054527577944,-0.00285111228004098,1713350769.78462
-0.000215811960515566,-0.00283716875128448,1713350769.78564
-0.000198671041289344,-0.00283543788827956,1713350769.81247
-0.000210859609069303,-0.00284575112164021,1713350769.81363
-0.000216869739233516,-0.00284911692142487,1713350769.86051
-0.000219586319872178,-0.00283707259222865,1713350769.86138
-0.000221894209971651,-0.00283192796632648,1713350769.90876
-0.000221557638724335,-0.00281690247356892,1713350769.9099
-0.000244468275923282,-0.00281139719299972,1713350769.9648
-0.000261368782958016,-0.00280618038959801,1713350769.96581
-0.000280889711575583,-0.00279848743230104,1713350769.98835
-0.000281394546618685,-0.00279473722912371,1713350769.98976
-0.000268244388280436,-0.0027973335236311,1713350770.01646
-0.000254445098107681,-0.00280368025414646,1713350770.01761
-0.000246655981754884,-0.00280567561276257,1713350770.07303
-0.00023773692373652,-0.00281899399124086,1713350770.07399
-0.000234178922255523,-0.00282618217170238,1713350770.09657
-0.000223601091420278,-0.00282082124613225,1713350770.09769
-0.000222158661927097,-0.00282231159508228,1713350770.15283
-0.000219418041524477,-0.00282454746775329,1713350770.15406
-0.000221437439904548,-0.00282348971813917,1713350770.17696
-0.00022446655202657,-0.00281673413701355,1713350770.17814
-0.000223480892600492,-0.0028126232791692,1713350770.25295
-0.000216821659705602,-0.00281461863778532,1713350770.25394
-0.000209657577215694,-0.00281685451045632,1713350770.32815
-0.000204248455702327,-0.00281197414733469,1713350770.3295
-0.000201339542400092,-0.00281209452077746,1713350770.35642
-0.000200257723918185,-0.00282082124613225,1713350770.35738
-0.000201483795535751,-0.00282606203109026,1713350770.39655
-0.000200762573513202,-0.00283488491550088,1713350770.3977
-0.000197036293684505,-0.00283813034184277,1713350770.41702
-0.000196339111425914,-0.00283541367389262,1713350770.4179
-0.000187107551028021,-0.00284039019607008,1713350770.44833
-0.000184967939276248,-0.00283195194788277,1713350770.44912
-0.000189463520655409,-0.00281858537346125,1713350770.47247
-0.000182034986210056,-0.00279783830046654,1713350770.47338
-0.000173067863215692,-0.00278240442276001,1713350770.49276
-0.000176866276888177,-0.00278067332692444,1713350770.49432
-0.000178404865437187,-0.00277564907446504,1713350770.5409
-0.000183140859007835,-0.00279269367456436,1713350770.54211
-0.000184054399142042,-0.00278264470398426,1713350770.59643
-0.000190665552509017,-0.00278699607588351,1713350770.59717
-0.000179150127223693,-0.00276689813472331,1713350770.62108
-0.000190304941497743,-0.00274821859784424,1713350770.62214
-0.000382653321139514,-0.00277564907446504,1713350770.7085
5.41152621735819E-05,-0.00275100744329393,1713350770.70945
-3.3440395782236E-05,-0.00274588679894805,1713350770.76052
-0.000289616407826543,-0.00280776713043451,1713350770.76161
-0.000284063047729433,-0.00277617783285677,1713350770.78031
-6.26015753368847E-05,-0.00275668106041849,1713350770.78142
-0.000291563716018572,-0.00278538535349071,1713350770.80462
-0.000258123298408464,-0.00272468291223049,1713350770.80581
-0.000290025112917647,-0.00274425209499896,1713350770.86463
-8.15695602796041E-05,-0.00275906105525792,1713350770.86539
-6.45248146611266E-05,-0.00273155863396823,1713350770.91254
-3.74070841644425E-05,-0.00275038229301572,1713350770.91352
-0.000208046854822896,-0.00273922760970891,1713350770.94045
-0.000154821100295521,-0.0027175669092685,1713350770.94122
-0.000126837898278609,-0.00274081411771476,1713350770.96436
-0.000116187940875534,-0.00274629541672766,1713350770.96542
-0.000171264822711237,-0.00275170453824103,1713350770.98475
-0.000206844837521203,-0.00274401158094406,1713350770.98617
-0.00014825802645646,-0.00276677799411118,1713350771.01242
-0.000173524633282796,-0.0027918522246182,1713350771.01305
-0.000278365449048579,-0.00276473467238247,1713350771.06434
-8.04156152298674E-05,-0.00279365526512265,1713350771.06531
-0.000169485821970738,-0.00278310151770711,1713350771.09243
-0.000201868431759067,-0.00280271866358817,1713350771.09363
-0.00019138675997965,-0.00281961914151907,1713350771.14035
-0.000225716663408093,-0.00279990583658218,1713350771.14119
-0.000174750704900362,-0.00281892204657197,1713350771.19229
-0.000192252220585942,-0.00282442732714117,1713350771.19304
-0.000165759542142041,-0.00282276840880513,1713350771.21289
-0.0001558067597216,-0.00285618472844362,1713350771.2143
-0.000145469326525927,-0.00280606024898589,1713350771.26092
-0.000150902487803251,-0.00284851575270295,1713350771.26219
-0.000133352892589755,-0.00284382794052362,1713350771.29227
-0.000102845442597754,-0.00286260363645852,1713350771.29376
-9.17867946554907E-05,-0.00287407101131976,1713350771.34087
-7.84683288657106E-05,-0.00288424012251198,1713350771.37245
-9.21473983908072E-05,-0.00288020120933652,1713350771.40028
-0.000140204443596303,-0.00287635484710336,1713350771.40102
-0.000174558386788704,-0.00288202846422791,1713350771.42439
-0.000215547508560121,-0.00289825582876801,1713350771.42552
-0.000220355621422641,-0.00290763145312667,1713350771.45231
-0.000234227016335353,-0.00291698332875967,1713350771.45305
-0.000221269161556847,-0.00292215193621814,1713350771.50469
-0.000152609369251877,-0.00290282350033522,1713350771.50569
-0.000182275398401544,-0.0029147716704756,1713350771.52856
-0.000135877155116759,-0.00289801531471312,1713350771.52964
-0.000135684822453186,-0.00290251080878079,1713350771.62525
-0.000206580385565758,-0.00294224987737834,1713350771.62725
-0.000216605287278071,-0.00295352493412793,1713350771.68463
-0.000225908981519751,-0.00295292399823666,1713350771.68571
-0.000211556776775978,-0.00297468062490225,1713350771.7124
-0.00020078661327716,-0.0029728536028415,1713350771.71334
-0.000215932159335352,-0.00294888508506119,1713350771.73268
-0.000255575025221333,-0.0029278255533427,1713350771.73366
-0.000256873201578856,-0.0029209500644356,1713350771.74573
-0.000246535753831267,-0.00292465230450034,1713350771.74624
-0.000241919988184236,-0.00292854686267674,1713350771.80082
-0.000233938524615951,-0.00293837930075824,1713350771.80258
-0.000231053651077673,-0.00294621661305428,1713350771.82216
-0.000238938955590129,-0.00295455870218575,1713350771.82257
-0.000238458145759068,-0.00296097761020064,1713350771.85255
-0.000233265382121317,-0.00298047438263893,1713350771.85358
-0.000228361110202968,-0.00299458624795079,1713350771.90042
-0.000219057430513203,-0.00301290513016284,1713350771.9242
-0.000224202100071125,-0.00301473215222359,1713350771.94876
-0.000223577051656321,-0.00301845837384462,1713350771.94985
-0.000224995441385545,-0.00301473215222359,1713350771.96451
-0.000219057430513203,-0.00301713612861931,1713350771.96597
-0.00022525989334099,-0.00301249627955258,1713350772.01689
-0.000213912746403366,-0.00301663135178387,1713350772.01809
-0.000220668138354085,-0.00300766434520483,1713350772.04848
-0.000254661485087126,-0.00302074220962822,1713350772.04959
-0.000179366485099308,-0.00303410878404975,1713350772.0887
-0.00018552086839918,-0.00302487728185952,1713350772.0898
-0.00023540499387309,-0.00301249627955258,1713350772.16453
-0.00026759528554976,-0.00298650865443051,1713350772.16588
-0.00014085354632698,-0.00297463242895901,1713350772.18042
-0.000155902918777429,-0.00297299772500992,1713350772.18145
-0.000247785879764706,-0.00299997115507722,1713350772.21668
-0.000436888774856925,-0.00301538128405809,1713350772.21786
-5.13265586050693E-05,-0.00300523615442216,1713350772.25237
-0.000209753736271523,-0.00299927406013012,1713350772.25336
-0.000212181825190783,-0.0030075921677053,1713350772.32073
-4.14939786423929E-05,-0.00300581310875714,1713350772.32183
-0.000367123138858005,-0.00297203613445163,1713350772.34856
-0.000134915520902723,-0.00300352927297354,1713350772.34937
-0.000438331218902022,-0.00299701420590281,1713350772.3767
-0.000330365146510303,-0.00300910673104227,1713350772.37779
-0.000123953039292246,-0.00299530732445419,1713350772.42876
-0.000177467285539024,-0.00298600364476442,1713350772.42979
-0.000359382072929293,-0.00301663135178387,1713350772.46095
-0.000261200504610315,-0.00298629212193191,1713350772.48084
-0.000107725674752146,-0.0030290603172034,1713350772.5404
-0.000165639343322255,-0.00300497165881097,1713350772.5411
-0.000169269464095123,-0.00300749600864947,1713350772.56861
-0.000235693485592492,-0.00297492113895714,1713350772.56983
-0.000152489170432091,-0.00297807040624321,1713350772.59271
-0.00022182209067978,-0.00300247152335942,1713350772.59369
-0.000200426002265885,-0.00300593324936926,1713350772.62082
-0.000157201109686866,-0.00302331452257931,1713350772.62165
-0.000197444984223694,-0.00302182417362928,1713350772.66494
-0.00021780731913168,-0.00302280974574387,1713350772.66612
-0.000208455545362085,-0.00302973343059421,1713350772.72481
-0.000232568214414641,-0.0030228819232434,1713350772.72607
-0.000234659746638499,-0.00301230396144092,1713350772.84436
-0.000332047988194972,-0.0030306950211525,1713350772.84588
-0.000206965036340989,-0.00302961328998208,1713350772.86832
-0.000319042039336637,-0.00303324335254729,1713350772.8694
-0.000273389043286443,-0.00301816989667714,1713350772.89288
-0.000165206613019109,-0.00300295231863856,1713350772.89358
-0.000174630506080575,-0.00302372337318957,1713350772.90041
-0.000228529403102584,-0.00302795437164605,1713350772.90156
-0.000201315502636135,-0.0029966295696795,1713350772.92444
-0.000197444984223694,-0.0030144676566124,1713350772.92563
-0.000182371557457373,-0.00303963827900589,1713350772.97222
-0.000165038320119493,-0.0030299979262054,1713350772.97296
-0.000162081341841258,-0.00301862671039999,1713350773.00051
-0.000145325087942183,-0.00301829027011991,1713350773.00166
-0.000135708862217143,-0.00303153647109866,1713350773.08028
-0.000126885992358439,-0.00303812371566892,1713350773.08118
-0.000139964045956731,-0.00303502241149545,1713350773.10456
-0.00015522979083471,-0.0030258628539741,1713350773.10629
-0.00017806829418987,-0.00302119902335107,1713350773.13672
-0.000199223984964192,-0.00301223201677203,1713350773.13775
-0.000197541143279523,-0.00301004434004426,1713350773.16479
-0.000224202100071125,-0.0030098520219326,1713350773.16604
-0.000238698557950556,-0.00301819411106408,1713350773.18882
-0.000234010643907823,-0.00302192033268511,1713350773.19001
-0.000208383426070213,-0.00300307245925069,1713350773.22077
-0.000219995010411367,-0.00298867211677134,1713350773.22206
-0.000203479154151864,-0.00298881647177041,1713350773.24841
-0.00025100729544647,-0.00300360145047307,1713350773.24966
-0.000247857999056578,-0.0030034810770303,1713350773.30469
-0.000252521858783439,-0.00300956354476511,1713350773.30585
-0.000247256975853816,-0.00299989921040833,1713350773.35264
-0.000244901020778343,-0.00298016192391515,1713350773.35396
-0.000251680437941104,-0.00297756539657712,1713350773.38853
-0.000259974418440834,-0.00296261231414974,1713350773.38972
-0.000271105207502842,-0.00296061695553362,1713350773.41703
-0.000258844520431012,-0.00294232205487788,1713350773.41761
-0.000250959215918556,-0.00294097582809627,1713350773.45657
-0.000236318534007296,-0.00294133648276329,1713350773.45774
-0.00023514055646956,-0.00294119212776422,1713350773.49724
-0.00022711101337336,-0.0029609533958137,1713350773.49783
-0.000232808612054214,-0.00297237280756235,1713350773.54079
-0.000228048593271524,-0.00297883967868984,1713350773.54177
-0.000229082332225516,-0.00298184459097683,1713350773.62415
-0.000235981962759979,-0.00297540193423629,1713350773.62527
-0.000240261186263524,-0.00297492113895714,1713350773.64418
-0.000238410066231154,-0.00297468062490225,1713350773.64554
-0.000238698557950556,-0.00297823850996792,1713350773.7045
-0.000233289421885274,-0.00299110030755401,1713350773.70527
-0.000224706949666142,-0.00299600465223193,1713350773.72493
-0.000198647001525387,-0.00300360145047307,1713350773.72604
-0.00021643700893037,-0.00300444290041924,1713350773.74036
-0.000202926225028932,-0.00300146173685789,1713350773.74164
-0.000183549549547024,-0.00300456304103136,1713350773.78856
-0.000209321005968377,-0.00300081260502338,1713350773.78974
-0.000213263658224605,-0.00297792605124414,1713350773.8167
-0.00019169929146301,-0.0029819889459759,1713350773.81804
-0.000180352159077302,-0.00294215371832252,1713350773.88087
-0.000245838600676507,-0.00292155100032687,1713350773.88239
-0.000154676847159863,-0.0029001550283283,1713350773.92095
-0.000220379661186598,-0.00292207999154925,1713350773.92206
-0.000356304895831272,-0.00291126174852252,1713350773.94873
-5.90676136198454E-05,-0.00288306199945509,1713350773.94973
-0.000161528412718326,-0.00294734654016793,1713350773.97309
-0.000210667276405729,-0.00289101945236325,1713350773.97393
-0.000249661039561033,-0.00291597354225814,1713350774.0207
-0.000276033504633233,-0.00290695833973587,1713350774.0224
-0.000147657017805614,-0.00288219656795263,1713350774.11237
-0.000206195734790526,-0.00290352059528232,1713350774.11336
-0.00019386294297874,-0.00290789594873786,1713350774.14452
-0.000194776483112946,-0.00291532441042364,1713350774.14567
-0.000275576749118045,-0.00294859660789371,1713350774.18436
-0.000310483621433377,-0.00288823083974421,1713350774.18516
-0.000125900318380445,-0.0029200604185462,1713350774.20443
-0.000187804718734697,-0.00297463242895901,1713350774.20558
-0.00030454559600912,-0.00294227385893464,1713350774.22895
-0.000214994579437189,-0.00293965358287096,1713350774.22979
-0.000182972566108219,-0.00293042208068073,1713350774.30469
-0.000275071884971112,-0.00293203280307353,1713350774.30596
-0.000184631368028931,-0.00295616942457855,1713350774.38058
-0.000247425254201516,-0.00293159997090697,1713350774.38132
-0.000254853803198785,-0.00294650509022176,1713350774.4044
-0.000198021953110583,-0.00290335225872695,1713350774.40539
-0.000209657577215694,-0.00294551951810718,1713350774.43244
-0.000237616724916734,-0.00293662445619702,1713350774.43366
-0.000236967636737972,-0.00293056620284915,1713350774.46468
-0.000235957922996022,-0.00291443499736488,1713350774.46586
-0.000230260324315168,-0.00293236924335361,1713350774.48033
-0.000213023246033117,-0.0029319366440177,1713350774.48126
-0.000228313030675054,-0.00290166959166527,1713350774.50455
-0.000213816587347537,-0.0029271284583956,1713350774.50579
-0.000198959533008747,-0.00295126507990062,1713350774.53299
-0.000186650780960917,-0.00289234169758856,1713350774.5344
-0.000194319713045843,-0.00294912559911609,1713350774.58484
-0.000196098713786341,-0.00295037566684186,1713350774.58609
-0.000206195734790526,-0.00296446331776679,1713350774.61307
-0.000231774873100221,-0.00297686830163002,1713350774.61437
-0.000272643810603768,-0.00296701164916158,1713350774.66105
-0.00029899223591201,-0.00295535195618868,1713350774.6886
-0.000315435958327726,-0.00294006220065057,1713350774.71247
-0.00033101424924098,-0.00295013515278697,1713350774.71368
-0.000350799615262076,-0.00297554605640471,1713350774.73638
-0.000335053046001121,-0.0029161658603698,1713350774.73718
-0.000303583976346999,-0.00290469848550856,1713350774.78865
-0.000291972392005846,-0.00290828058496118,1713350774.78986
-0.000259902299148962,-0.00290986732579768,1713350774.89675
-0.00024651171406731,-0.00289957807399333,1713350774.89781
-0.000254589336691424,-0.00291068479418755,1713350774.9525
-0.000274398742476478,-0.00292607070878148,1713350774.9535
-0.000307502574287355,-0.00293049402534962,1713350774.98068
-0.000320797000313178,-0.00294321146793663,1713350774.98148
-0.000313608878059313,-0.00291231949813664,1713350775.00849
-0.000314257980789989,-0.00291914702393115,1713350775.00922
-0.000316157180350274,-0.00291255977936089,1713350775.03733
-0.000319234357448295,-0.00291340122930706,1713350775.03886
-0.000317840022034943,-0.0028846247587353,1713350775.10028
-0.000317479396471754,-0.00287974462844431,1713350775.10139
-0.000305074499920011,-0.00287488824687898,1713350775.13643
-0.000293390796286985,-0.00287741259671748,1713350775.13773
-0.000271321565378457,-0.00287346984259784,1713350775.19676
-0.00025983017985709,-0.00286041595973074,1713350775.19782
-0.000234010643907823,-0.00284486170858145,1713350775.21666
-0.000244155758991837,-0.00282846600748599,1713350775.21775
-0.00026617688126862,-0.00282211927697062,1713350775.24496
-0.000267475086729974,-0.00281336857005954,1713350775.24607
-0.000274110265308991,-0.00281062792055309,1713350775.27267
-0.000282139808405191,-0.00281327241100371,1713350775.29659
-0.000269879121333361,-0.00280776713043451,1713350775.32043
-0.000260286964476109,-0.00280069932341576,1713350775.32113
-0.000244756753090769,-0.00279117911122739,1713350775.34515
-0.000239131273701787,-0.00278048100881279,1713350775.34649
-0.000232616293942556,-0.00277249957434833,1713350775.36897
-0.000237015716265887,-0.00277870218269527,1713350775.37027
-0.000224851202801801,-0.00279608345590532,1713350775.39261
-0.000219514200580306,-0.00279560266062617,1713350775.39398
-0.000198478723177686,-0.00280959415249526,1713350775.42442
-0.000187660480150953,-0.00281747942790389,1713350775.42515
-0.000183140859007835,-0.00282959593459964,1713350775.44837
-0.000180424278369173,-0.00283151911571622,1713350775.44984
-0.000171000385307707,-0.00283764954656363,1713350775.5097
-0.000166408644872718,-0.00283337035216391,1713350775.51052
-0.000178356785909273,-0.00283603882417083,1713350775.53279
-0.000162922762683593,-0.00283022108487785,1713350775.53416
-0.000287741248030215,-0.00281180604360998,1713350775.56878
-5.34180871909484E-05,-0.00282329740002751,1713350775.56958
-0.000129650652525015,-0.00281832087785006,1713350775.61644
-0.000118327552627306,-0.00277814920991659,1713350775.61797
-0.000139771713293158,-0.0027600466273725,1713350775.71623
-0.000147584898513742,-0.00278730853460729,1713350775.71728
-0.000173139997059479,-0.00278978468850255,1713350775.73641
-0.000251271761953831,-0.00277750007808208,1713350775.73729
-8.15695602796041E-05,-0.0027879576664418,1713350775.76426
-0.000141166063258424,-0.00278206774964929,1713350775.76553
-0.000146599224535748,-0.00275333924219012,1713350775.81293
-0.000133160574478097,-0.00274095847271383,1713350775.86053
-0.000209681616979651,-0.00276480661705136,1713350775.88859
-6.81549427099526E-05,-0.00273915543220937,1713350775.8894
-0.000265648006461561,-0.00275627220980823,1713350775.93637
-6.15197495790198E-05,-0.0027779086958617,1713350775.93702
-0.000178284666617401,-0.0027934149838984,1713350775.96468
-0.000344356725690886,-0.00279966555535793,1713350775.96593
-0.000184775606612675,-0.00280293496325612,1713350776.02444
-0.000198021953110583,-0.00279247737489641,1713350776.0251
-0.000131189241074026,-0.00276502314954996,1713350776.04833
-0.000303608016110957,-0.0028190421871841,1713350776.04899
-0.000243987466092221,-0.00281714298762381,1713350776.08053
-0.000177419206011109,-0.00281026726588607,1713350776.08158
-0.000187035417184234,-0.00281897000968456,1713350776.10469
-0.000194319713045843,-0.00284296250902116,1713350776.10558
-0.000201940565602854,-0.00282757659442723,1713350776.12853
-0.0001943437528098,-0.00277437479235232,1713350776.12979
-0.000196868000784889,-0.00281183002516627,1713350776.16041
-0.000192107982002199,-0.0028389235958457,1713350776.16141
-0.000172394735272974,-0.00277112936601043,1713350776.19253
-0.000157850197865628,-0.00272706313990057,1713350776.19325
-0.000175351713551208,-0.00287462398409843,1713350776.21251
-0.000135324211441912,-0.00274708890356123,1713350776.21321
-0.00015042167797219,-0.00278540933504701,1713350776.26104
-0.000155518268002197,-0.00284402025863528,1713350776.2624
-0.000165999954333529,-0.00284709734842181,1713350776.31249
-0.000151359257870354,-0.00279036187566817,1713350776.31352
-0.000151599670061842,-0.00280723813921213,1713350776.35669
-0.000143257595482282,-0.00283671193756163,1713350776.35777
-0.000146190548548475,-0.00283466838300228,1713350776.39245
-0.000174173736013472,-0.0028313749935478,1713350776.39332
-0.000202229042770341,-0.0028395967092365,1713350776.43693
-0.000208575744181871,-0.00283459643833339,1713350776.43876
-0.000227543743676506,-0.00282072508707643,1713350776.46436
-0.000213095365324989,-0.00281954696401954,1713350776.46518
-0.000265864364337176,-0.00280098780058324,1713350776.51271
-0.000269302166998386,-0.00279473722912371,1713350776.51363
-0.000263941125012934,-0.0027856738306582,1713350776.54028
-0.000253651756793261,-0.00278290919959545,1713350776.54106
-0.000247088697506115,-0.00277225929312408,1713350776.58835
-0.000250670738751069,-0.00277504790574312,1713350776.58934
-0.00026009464636445,-0.00277444696985185,1713350776.6366
-0.000258387764915824,-0.00277387001551688,1713350776.63805
-0.000263075664406642,-0.00277317268773913,1713350776.66887
-0.0002652152616065,-0.00277920695953071,1713350776.67009
-0.000271754310233518,-0.00277622602880001,1713350776.6924
-0.000274711288511753,-0.00277127348817885,1713350776.69303
-0.000275745027465746,-0.00275533460080624,1713350776.74068
-0.000274230464128777,-0.00274906004779041,1713350776.74176
-0.000269470445346087,-0.00275983032770455,1713350776.76432
-0.000267258728854358,-0.00275682518258691,1713350776.76501
-0.00026141686248593,-0.00274716084823012,1713350776.81676
-0.000253050762694329,-0.00275687337853014,1713350776.81794
-0.000271345605142415,-0.00274944468401372,1713350776.84475
-0.000283245666651055,-0.00275603192858398,1713350776.84604
-0.000277932704193518,-0.00275795510970056,1713350776.94829
-0.000273966026725247,-0.00275853206403553,1713350776.95
-0.000274086225545034,-0.00274595897644758,1713350776.97695
-0.000273893907433376,-0.00274283369071782,1713350776.97805
-0.000263436260866001,-0.00273954006843269,1713350777.00537
-0.00026009464636445,-0.00272807269357145,1713350777.00659
-0.000255046121310443,-0.00272321654483676,1713350777.02889
-0.000252642057603225,-0.00272417813539505,1713350777.03014
-0.000244780821958557,-0.0027214374858886,1713350777.06958
-0.000239371685893275,-0.00272170198149979,1713350777.07002
-0.000222567352466285,-0.00272867362946272,1713350777.14465
-0.000222663511522114,-0.00273444340564311,1713350777.14624
-0.000218552580918185,-0.00276504713110626,1713350777.15238
-0.000215571548324078,-0.00274797831661999,1713350777.15321
-0.000219995010411367,-0.00279230903834105,1713350777.18071
-0.000211965467315167,-0.00280545931309462,1713350777.18203
-0.000210450918530114,-0.00281572458334267,1713350777.23268
-0.000203839765163138,-0.00281889783218503,1713350777.23378
-0.000196483364561573,-0.00282690348103642,1713350777.28097
-0.000196651642909274,-0.0028336588293314,1713350777.28201
-0.000201916525838897,-0.00283464440144598,1713350777.31292
-0.000189655838767067,-0.00281940284185112,1713350777.31369
-0.00020607553597074,-0.00281183002516627,1713350777.33629
-0.000226822521653958,-0.00280591589398682,1713350777.33733
-0.000178885675268248,-0.0027785818092525,1713350777.36075
-0.000184487129445188,-0.00277177849784493,1713350777.36199
-0.000180736795300618,-0.00274571846239269,1713350777.4167
-0.000148474398883991,-0.00273970840498805,1713350777.41799
-0.000166072073625401,-0.00275038229301572,1713350777.47293
-0.000171216743183322,-0.00274345860816538,1713350777.47438
-0.000197276691324078,-0.00273367413319647,1713350777.49671
-0.000218480447074398,-0.00273333769291639,1713350777.4979
-8.98395082913339E-05,-0.0026912426110357,1713350777.53254
-0.000297597871394828,-0.00274576665833592,1713350777.53388
-0.000136261791340075,-0.00271021062508225,1713350777.58446
-0.000167971273185685,-0.00267109670676291,1713350777.58527
-0.000294087949441746,-0.00268451124429703,1713350777.60874
-0.000120010387036018,-0.00272047589533031,1713350777.60998
-0.000165422970894724,-0.00274360296316445,1713350777.6606
-0.000214922460145317,-0.00276112859137356,1713350777.66166
-0.000253363279625773,-0.00274353078566492,1713350777.71244
-0.000201459755771793,-0.00275240186601877,1713350777.71313
-0.000121044133265968,-0.00278615462593734,1713350777.73701
-0.000211965467315167,-0.00275855604559183,1713350777.73822
-0.00020665250485763,-0.00272138952277601,1713350777.78456
-0.000235501152928919,-0.0027525220066309,1713350777.78597
-0.000282091728877276,-0.00274893990717828,1713350777.80445
-0.000255478837061673,-0.00273023638874292,1713350777.80538
-0.000291251169983298,-0.00275583961047232,1713350777.90853
-0.00020713331468869,-0.00275567127391696,1713350777.90962
-0.000246103038080037,-0.00276115257292986,1713350777.96101
-0.000268052041064948,-0.00275062280707061,1713350777.96242
-0.00023562136630062,-0.00276538357138634,1713350777.98096
-0.0002491561754141,-0.00274761766195297,1713350777.9818
-0.000254757644142956,-0.00276225828565657,1713350778.0085
-0.000257618463365361,-0.00275290664285421,1713350778.04452
-0.000254709564615041,-0.00271150888875127,1713350778.09647
-0.000260335044004023,-0.00278060138225555,1713350778.09763
-0.000242376758251339,-0.00275682518258691,1713350778.14887
-0.000238914915826172,-0.00276754726655781,1713350778.14995
-0.000231678714044392,-0.00277634616941214,1713350778.18518
-0.000212205879506655,-0.00278302934020758,1713350778.18602
-0.000196940134628676,-0.00281190220266581,1713350778.23746
-0.000190088569070213,-0.00282125384546816,1713350778.23878
-0.000205546646611765,-0.00282262428663671,1713350778.24473
-0.000229683340876363,-0.00280822394415736,1713350778.24595
-0.000267907802481204,-0.00279533816501498,1713350778.27248
-0.000267787603661418,-0.00279055419377983,1713350778.27318
-0.000269278127234429,-0.0027818032540381,1713350778.30073
-0.000284495792584494,-0.00279089063405991,1713350778.30241
-0.000311661598971114,-0.0027902415022254,1713350778.32487
-0.000307310256175697,-0.00279062613844872,1713350778.32596
-0.000267619325313717,-0.00278771738521755,1713350778.34481
-0.000247689720708877,-0.00278675579465926,1713350778.34583
-0.000265022943494841,-0.00278548151254654,1713350778.40072
-0.000264205562416464,-0.00279336678795516,1713350778.40185
-0.000267378927674144,-0.00279726134613156,1713350778.42154
-0.000265912443865091,-0.00280401669442654,1713350778.42185
-0.000262017885688692,-0.00281731132417917,1713350778.44436
-0.000260911998338997,-0.00281108473427594,1713350778.44552
-0.000267354887910187,-0.00280303112231195,1713350778.48463
-0.000275937345577404,-0.00279685272835195,1713350778.48588
-0.000284014968201518,-0.00279930490069091,1713350778.56043
-0.000283221626887098,-0.00280954618938267,1713350778.57631
-0.00026088795857504,-0.00281947478652,1713350778.58456
-0.000234251056099311,-0.00282873050309718,1713350778.58575
-0.000215739826671779,-0.00285967066884041,1713350778.62848
-0.000210138387046754,-0.00284421257674694,1713350778.62953
-0.000198767214897089,-0.00286818109452724,1713350778.65634
-0.000190569378901273,-0.00289421691559255,1713350778.65782
-0.000202685812837444,-0.00291561312042177,1713350778.68458
-0.000212133745662868,-0.00291945948265493,1713350778.68554
-0.000220019050175324,-0.00293544656597078,1713350778.75641
-0.000223120281589217,-0.00294025451876223,1713350778.75743
-0.000225428171688691,-0.00293989386409521,1713350778.78024
-0.000224057861487381,-0.00294835632666945,1713350778.78104
-0.000216340849874541,-0.00301225599832833,1713350778.80857
-0.000215547508560121,-0.00290688639506698,1713350778.80969
-0.000207181394216605,-0.00293566286563873,1713350778.86445
-0.000200594295165502,-0.00294273067265749,1713350778.86577
-0.000193983141798526,-0.00294299516826868,1713350778.89676
-0.000195089000044391,-0.00294282683171332,1713350778.89788
-0.000207590084755793,-0.00295150559395552,1713350778.94438
-0.000173188076587394,-0.00294140842743218,1713350778.94606
-0.000149508137837984,-0.00293205678462982,1713350778.97703
-0.000140252523124218,-0.00293484539724886,1713350778.97824
-0.000127438921481371,-0.00293708126991987,1713350779.03232
-0.000122895260574296,-0.00293664843775332,1713350779.03304
-0.000159701332449913,-0.00292301760055125,1713350779.05252
-0.000198502762941644,-0.00293376366607845,1713350779.05358
-0.000125419508549385,-0.00295547232963145,1713350779.0848
-0.000160711031639949,-0.00295431818813086,1713350779.11243
-0.000334548181854188,-0.00295809260569513,1713350779.12868
-7.11119282641448E-05,-0.00293131149373949,1713350779.13
-7.67133751651272E-05,-0.00292671984061599,1713350779.17263
-0.000126212849863805,-0.00293741771019995,1713350779.1738
-0.000227808181080036,-0.00296465563587844,1713350779.22441
-0.000460184062831104,-0.00294181727804244,1713350779.2253
-3.81523423129693E-05,-0.00295354891568422,1713350779.27298
-0.000163091041031294,-0.00294996704906225,1713350779.27402
-0.000155349989654496,-0.00302177597768605,1713350779.30041
-0.000221749971387908,-0.00296823773533106,1713350779.30134
-0.00024038138508331,-0.00297398352995515,1713350779.32846
-0.000129482359625399,-0.00299405725672841,1713350779.32977
-0.000312503019813448,-0.00298809516243637,1713350779.37249
-0.000362339051207528,-0.00303026242181659,1713350779.37331
-0.000181049326783977,-0.0030716119799763,1713350779.42838
-0.000275192083790898,-0.00302324257791042,1713350779.42974
9.27964993024943E-06,-0.00299985101446509,1713350779.48082
-0.000168452083016746,-0.00304898992180824,1713350779.4818
-0.000223432813072577,-0.0030498553533107,1713350779.50875
-0.000303031032672152,-0.00304749934002757,1713350779.51018
-0.000257930980296805,-0.00303329154849052,1713350779.53643
-0.000207686243811622,-0.00305050448514521,1713350779.53767
-0.000257281877566129,-0.00303562334738672,1713350779.56482
-0.00021997097064741,-0.00305976020172238,1713350779.56615
-0.000236799343838356,-0.00305173057131469,1713350779.61323
-0.000213455976336263,-0.00301492447033525,1713350779.61441
-0.000220475820242427,-0.00302737741731107,1713350779.65257
-0.00021009030751884,-0.00309567665681243,1713350779.66098
-0.000209801815799437,-0.00296530476771295,1713350779.71299
-0.00022494736185763,-0.00314176245592535,1713350779.71412
-0.000205186035600491,-0.00309091666713357,1713350779.74056
-0.000219730558455922,-0.00309685454703867,1713350779.74125
-0.000200065391254611,-0.00310007599182427,1713350779.78904
-0.000204681186005473,-0.00305259600281715,1713350779.79015
-0.000207277567824349,-0.00308995507657528,1713350779.8205
-0.000209657577215694,-0.00309803267009556,1713350779.82174
-0.000255839462624863,-0.0031188759021461,1713350779.86861
-0.000258411804679781,-0.00313822831958532,1713350779.86981
-0.000280360807664692,-0.00309961941093206,1713350779.88881
-0.000300963554764166,-0.00310351396910846,1713350779.88968
-0.000300482759485021,-0.00310305715538561,1713350779.95673
-0.000310026836814359,-0.00308858463540673,1713350779.95779
-0.000308824819512665,-0.00307254958897829,1713350779.96902
-0.000306853500660509,-0.00306497700512409,1713350779.97016
-0.000303632055874914,-0.00308286305516958,1713350780.01293
-0.000306564994389191,-0.00310207135044038,1713350780.01406
-0.000305723573546857,-0.00305141811259091,1713350780.05669
-0.000294905330520123,-0.00306870322674513,1713350780.05779
-0.000282933149719611,-0.00307507393881679,1713350780.08449
-0.000282356166280806,-0.00305685121566057,1713350780.08563
-0.000280288688372821,-0.00303535885177553,1713350780.13653
-0.000281947490293533,-0.00304435007274151,1713350780.13805
-0.000280432926956564,-0.0030297574121505,1713350780.17276
-0.00028408708749339,-0.00301910750567913,1713350780.17401
-0.000280000211205333,-0.00300485151819885,1713350780.23666
-0.00027076862170361,-0.00299864914268255,1713350780.23779
-0.000272667850367725,-0.00299388892017305,1713350780.26039
-0.000271610042545944,-0.00298929726704955,1713350780.26123
-0.000283990928437561,-0.00299357646144927,1713350780.29677
-0.000290626136120409,-0.00298872031271458,1713350780.29804
-0.000290986732579768,-0.00297434395179152,1713350780.33253
-0.000287669128738344,-0.00298448908142745,1713350780.33339
-0.000274831487331539,-0.00299571617506444,1713350780.37258
-0.000264902744675055,-0.00300528411753476,1713350780.37327
-0.000260046566836536,-0.00301533308811486,1713350780.47239
-0.000256680883467197,-0.0030244926456362,1713350780.47313
-0.00024766568094492,-0.00303540704771876,1713350780.51687
-0.000243843227508478,-0.00304242689162493,1713350780.51817
-0.000239203407545574,-0.00304658594541252,1713350780.54077
-0.000236270454479381,-0.00306661170907319,1713350780.54218
-0.000231846992392093,-0.00305492803454399,1713350780.59241
-0.000232159523875453,-0.00306581822223961,1713350780.59358
-0.000230572841246612,-0.00306913582608104,1713350780.64443
-0.00023509246238973,-0.00307488162070513,1713350780.6457
-0.000234130842727609,-0.00306598655879498,1713350780.66891
-0.000224226139835082,-0.00305295665748417,1713350780.67002
-0.000218528541154228,-0.00303367618471384,1713350780.69301
-0.000211460617720149,-0.00302389170974493,1713350780.69413
-0.000219754598219879,-0.00301350606605411,1713350780.70075
-0.000199849033378996,-0.00300845759920776,1713350780.70171
-0.000212806888157502,-0.00300629390403628,1713350780.74136
-0.000211749094887637,-0.00300100492313504,1713350780.74166
-0.000219369947444648,-0.00298203714191914,1713350780.86469
-0.00026353241992183,-0.00300925085321069,1713350780.86563
-6.39478457742371E-05,-0.00297268526628613,1713350780.87635
-0.000141358395921998,-0.00296681933104992,1713350780.87741
-0.000174943037563935,-0.00295362109318376,1713350780.87849
-0.000254036422120407,-0.00295780412852764,1713350780.87968
-0.000304641755064949,-0.00293547054752707,1713350780.93275
-0.000162898722919635,-0.00296177086420357,1713350780.93403
-0.000201147224288434,-0.00293345097452402,1713350780.95649
-0.000155999077833258,-0.00289089931175113,1713350780.95769
-0.000157465561642312,-0.00291039631702006,1713350780.98443
-0.00019756518304348,-0.00288082635961473,1713350780.98542
-6.57989658066072E-05,-0.00289876060560346,1713350781.00495
-0.000267186580458656,-0.00292881135828793,1713350781.00612
-0.000195617903955281,-0.00294645712710917,1713350781.06481
-0.000275168044026941,-0.00287854252383113,1713350781.06586
-0.000113519447040744,-0.00292299338616431,1713350781.09272
-0.00013635796494782,-0.00293568684719503,1713350781.0939
-0.000345126027241349,-0.00295770796947181,1713350781.14082
-0.00018504005856812,-0.00289327930659056,1713350781.14188
-0.000215884079807438,-0.00293251359835267,1713350781.16479
-0.00024766568094492,-0.00292390701361001,1713350781.16597
-0.000198382564121857,-0.0029664346948266,1713350781.221
-0.000216388929402456,-0.00292619084939361,1713350781.22213
-0.000215595588088036,-0.00293635996058583,1713350781.28082
-0.000219562280108221,-0.00292138266377151,1713350781.28187
-0.000186843099072576,-0.00291169434785843,1713350781.30496
-0.000231678714044392,-0.00293301837518811,1713350781.30613
-0.000261705339653417,-0.00293268170207739,1713350781.35632
-0.000229130411753431,-0.00292054121382535,1713350781.35697
-0.00023403468367178,-0.00294583197683096,1713350781.38045
-0.00025930130505003,-0.00290659791789949,1713350781.38145
-0.000215715786907822,-0.00289606815204024,1713350781.42834
-0.000215908119571395,-0.00291325710713863,1713350781.42949
-0.000176385467057116,-0.00290210219100118,1713350781.4764
-0.000196964174392633,-0.00294229807332158,1713350781.4776
-0.000171625433722511,-0.0029385716188699,1713350781.5285
-0.000167634701938368,-0.00290767964906991,1713350781.52982
-0.00017732304695528,-0.00294734654016793,1713350781.55685
-0.000176505665876903,-0.00295066414400935,1713350781.55813
-0.00015020530554466,-0.00296662701293826,1713350781.57818
-0.000143930723425001,-0.00297246896661818,1713350781.57842
-0.000170110884937458,-0.00298396032303572,1713350781.6128
-0.000210619196877815,-0.00297215627506375,1713350781.61389
-0.000263364141574129,-0.00294765899889171,1713350781.66474
-0.000278557767160237,-0.00292777759023011,1713350781.66589
-0.000269927229965106,-0.00291193486191332,1713350781.69243
-0.000290145311737433,-0.00291068479418755,1713350781.69341
-0.000312070274958387,-0.00290736719034612,1713350781.76847
-0.000290529947960749,-0.00288118701428175,1713350781.76956
-0.000236655105254613,-0.00287654716521502,1713350781.80039
-0.0002691819681786,-0.00287200347520411,1713350781.80147
-0.000260022497968748,-0.00288892793469131,1713350781.82477
-0.00029714111587964,-0.00289020221680403,1713350781.82586
-0.000303559936583042,-0.002893784083426,1713350781.84028
-0.000287092174403369,-0.00288945692591369,1713350781.86469
-0.000271537923254073,-0.00290234270505607,1713350781.89282
-0.000257762701949105,-0.00288010505028069,1713350781.89399
-0.000269951269729063,-0.00285683386027813,1713350781.94463
-0.000288991373963654,-0.0028336588293314,1713350781.94584
-0.000282548513496295,-0.00282625434920192,1713350781.97247
-0.000277331710094586,-0.00283637526445091,1713350781.97332
-0.000270912889391184,-0.00284712156280875,1713350782.01649
-0.000255238439422101,-0.00285702617838979,1713350782.01753
-0.000241919988184236,-0.00286440667696297,1713350782.0487
-0.000225187759497203,-0.00287178717553616,1713350782.04976
-0.000218384288018569,-0.00289332750253379,1713350782.09686
-0.000206676544621587,-0.00286320457234979,1713350782.09797
-0.000209224846912548,-0.002921671140939,1713350782.12492
-0.000208671917789616,-0.00296662701293826,1713350782.12613
-0.000214032959775068,-0.00290808826684952,1713350782.18076
-0.000217302469536662,-0.00289979437366128,1713350782.18195
-0.000218047731323168,-0.0029355906881392,1713350782.20835
-0.000218817018321715,-0.00298573938198388,1713350782.20937
-0.000217687120311894,-0.00287861470133066,1713350782.26049
-0.000209176767384633,-0.00290777580812573,1713350782.26128
-0.000206412107218057,-0.00291628623381257,1713350782.31283
-0.000202926225028932,-0.00287108984775841,1713350782.31388
-0.000199055692064576,-0.00289193307980895,1713350782.33711
-0.000196964174392633,-0.00290159741416574,1713350782.33852
-0.000201363582164049,-0.00295138522051275,1713350782.36479
-0.000203479154151864,-0.0028450780082494,1713350782.36584
-0.000204080162802711,-0.00287077738903463,1713350782.42108
-0.000204801384825259,-0.00286570494063199,1713350782.44894
-0.000204080162802711,-0.00286125740967691,1713350782.47637
-0.00019787771452684,-0.00285455002449453,1713350782.47713
-0.000199752874323167,-0.00285524711944163,1713350782.50036
-0.000197396904695779,-0.00285274698399007,1713350782.50103
-0.000212229919270612,-0.00285178539343178,1713350782.52825
-0.000205041797016747,-0.00284200091846287,1713350782.52939
-0.000191458879271522,-0.00282786507159472,1713350782.58071
-0.000169822393218055,-0.00281396950595081,1713350782.58218
-0.000144483667099848,-0.00280459388159215,1713350782.65666
-0.000176169094629586,-0.0027685088571161,1713350782.65783
-0.0002449250605423,-0.00277990405447781,1713350782.693
-0.000305290857795626,-0.00278103398159146,1713350782.69429
-0.000111259629193228,-0.00274504534900188,1713350782.72109
-0.000391884881537408,-0.00278002442792058,1713350782.72214
-0.00022768798226025,-0.00273853028193116,1713350782.74869
-8.44303867779672E-05,-0.00273028435185552,1713350782.74977
-0.000220043089939281,-0.00275377207435668,1713350782.76888
-0.000326975423377007,-0.00273319333791733,1713350782.76959
-5.3033436415717E-05,-0.00271477829664946,1713350782.81653
-0.000187804718734697,-0.00271374452859163,1713350782.8177
-0.000247232936089858,-0.00270304642617702,1713350782.88047
-0.000589474104344845,-0.0027445163577795,1713350782.88173
-4.57251117040869E-05,-0.00273030856624246,1713350782.90879
-0.000170303203049116,-0.00275382003746927,1713350782.91017
-0.000191939689102583,-0.00275865220464766,1713350782.93256
-0.000258604122791439,-0.00284168822690845,1713350782.93382
-0.00055274018086493,-0.00277531240135431,1713350782.96581
-0.000158595459652133,-0.00275276228785515,1713350782.97309
-0.000209176767384633,-0.00273199123330414,1713350783.03658
-0.000211652935831808,-0.00272227893583477,1713350783.03734
-0.000227447570068762,-0.0027376408688724,1713350783.04886
-0.00027447089087218,-0.00275213737040758,1713350783.04992
-0.000232808612054214,-0.00269807013683021,1713350783.10049
-0.00020184439199511,-0.00275033432990313,1713350783.10144
-0.000270287826424465,-0.00269328616559505,1713350783.12476
-0.000167562582646497,-0.00269232434220612,1713350783.12574
-0.000209729696507566,-0.00271747075021267,1713350783.20071
-0.000190737671800889,-0.0027054266538471,1713350783.20158
-0.000218528541154228,-0.002739924704656,1713350783.22473
-0.000152897846419364,-0.00265027745626867,1713350783.22566
-0.000210138387046754,-0.00278860679827631,1713350783.25265
-0.000164653683896177,-0.00276252278126776,1713350783.25375
-0.000175640205270611,-0.0027314864564687,1713350783.30886
-0.000194992840988562,-0.00275355577468872,1713350783.31012
-0.000186602701433003,-0.00275814742781222,1713350783.34056
-0.000166817320859991,-0.00275826756842434,1713350783.34149
-0.000145829937537201,-0.0027824763674289,1713350783.36468
-0.000133376932353713,-0.00279040983878076,1713350783.36591
-0.000152801687363535,-0.00280264648608863,1713350783.42086
-0.000219033390749246,-0.00281298393383622,1713350783.42189
-0.000258532003499567,-0.00280339177697897,1713350783.44442
-0.000288414390524849,-0.00278305355459452,1713350783.44524
-0.000270552263827994,-0.00275492598302662,1713350783.48512
-0.000275600788882002,-0.00276576820760965,1713350783.48609
-0.000294977449811995,-0.00278694811277091,1713350783.55643
-0.000264013244304806,-0.00276903784833848,1713350783.55768
-0.000265936483629048,-0.00275057461112738,1713350783.57261
-0.000267451046966016,-0.00274793012067676,1713350783.57371
-0.000275624828645959,-0.00275112758390605,1713350783.60869
-0.000272595701972023,-0.00274725700728595,1713350783.60926
-0.000280432926956564,-0.00274910824373364,1713350783.66057
-0.000296275655273348,-0.00275466148741543,1713350783.66159
-0.00029502552933991,-0.00276367668993771,1713350783.68494
-0.000288510549580678,-0.00277466326951981,1713350783.68605
-0.000287813367322087,-0.00275723380036652,1713350783.72875
-0.000299929815810174,-0.00273958826437592,1713350783.73072
-0.000301396299619228,-0.00273247226141393,1713350783.79738
-0.000305411056615412,-0.0027307893615216,1713350783.79783
-0.000305290857795626,-0.00273249624297023,1713350783.83649
-0.000302478118101135,-0.00273862644098699,1713350783.83773
-0.000289760675514117,-0.00274216057732701,1713350783.85269
-0.000275624828645959,-0.00274805049411952,1713350783.85395
-0.000273268844466656,-0.0027408862952143,1713350783.88074
-0.000263195863226429,-0.00275187287479639,1713350783.88188
-0.000263027584878728,-0.0027564165648073,1713350783.92155
-0.000255214399658144,-0.00276670581661165,1713350783.92208
-0.000251295801717788,-0.00278389477171004,1713350783.9807
-0.000246872339630499,-0.00277805305086076,1713350783.98167
-0.000238241773331538,-0.00278569781221449,1713350784.00432
-0.000226894640945829,-0.00278625078499317,1713350784.00579
-0.000220620058826171,-0.00279492954723537,1713350784.04843
-0.000210114347282797,-0.00287392665632069,1713350784.04943
-0.000205474527319893,-0.0028428181540221,1713350784.10878
-0.000195449611055665,-0.00288065802305937,1713350784.10989
-0.000198262350750156,-0.00297218048945069,1713350784.12432
-0.000201195303816348,-0.00301790540106595,1713350784.12518
-0.000204320574994199,-0.00307485763914883,1713350784.18085
-0.00020501775725279,-0.0029053958132863,1713350784.18204
-0.000205161995836534,-0.00292965257540345,1713350784.2084
-0.000207325647352263,-0.00292460410855711,1713350784.20946
-0.000192949402844533,-0.00291433883830905,1713350784.25264
-0.000197228611796163,-0.0028976546600461,1713350784.25385
-0.000179366485099308,-0.00289702974259853,1713350784.30028
-0.0001842467172537,-0.00289957807399333,1713350784.30102
-0.000183068739715964,-0.0029053958132863,1713350784.32437
-0.000180977207492106,-0.00289294286631048,1713350784.32594
-0.000163619930390269,-0.00287060905247927,1713350784.39255
-0.00017035128257703,-0.00285784364677966,1713350784.39359
-0.000165278732310981,-0.00286087277345359,1713350784.43283
-0.000206436146982014,-0.00288734142668545,1713350784.43394
-0.000146310747368261,-0.00287197949364781,1713350784.46056
-0.000307382375467569,-0.00287943193688989,1713350784.46169
-0.000109264270577114,-0.00287854252383113,1713350784.50481
-0.000119914227980189,-0.00285611255094409,1713350784.5056
-0.000155470188474283,-0.00285277096554637,1713350784.54846
-0.000112509740574751,-0.00286873383447528,1713350784.54957
-0.000220644098590128,-0.0028583244420588,1713350784.56828
-0.000260118686128408,-0.00284902076236904,1713350784.56894
2.35837724176235E-05,-0.00285798776894808,1713350784.61635
-0.000126717699458823,-0.00288250925950706,1713350784.61755
-0.000157008791575208,-0.00286339689046144,1713350784.6525
-0.00017780385678634,-0.00289962603710592,1713350784.65368
-0.000329042901284993,-0.00287022441625595,1713350784.68878
-8.1473401223775E-05,-0.00289481785148382,1713350784.69001
-0.000188309568329714,-0.00293109519407153,1713350784.74164
-0.000266729824943468,-0.00293001323007047,1713350784.74273
-0.000199464382603765,-0.00287931179627776,1713350784.76477
-0.000206412107218057,-0.00292010861448944,1713350784.766
-0.000259493623161688,-0.00293609546497464,1713350784.8127
-0.000217759239603765,-0.00290917023085058,1713350784.81374
-0.00022013924899511,-0.0029086412396282,1713350784.86089
-0.000156672220327891,-0.00289424089714885,1713350784.86211
-0.000207349687116221,-0.00294008618220687,1713350784.88057
-0.000232039325055666,-0.00292277708649635,1713350784.88187
-0.000370007997844368,-0.00292424345389009,1713350784.92839
-0.000191002109204419,-0.00291258399374783,1713350784.92943
-0.000216533167986199,-0.00286801275797188,1713350784.96084
-0.000239371685893275,-0.00292270490899682,1713350784.96233
-0.000236414693063125,-0.00293590314686298,1713350784.99692
-0.000234876104514115,-0.00291582942008972,1713350784.99809
-0.000211340418900363,-0.00287385447882116,1713350785.05258
-0.000189415441127494,-0.00290967500768602,1713350785.05363
-0.000206123615498655,-0.00298246974125504,1713350785.1085
-0.000192468593013473,-0.00293746590614319,1713350785.10965
-0.000183092779479921,-0.00293941306881607,1713350785.13656
-0.000176481626112945,-0.00294624059461057,1713350785.13777
-0.000165663383086212,-0.00296092941425741,1713350785.18042
-0.000144387508044019,-0.0029726130887866,1713350785.1883
-0.000151359257870354,-0.00296472781337798,1713350785.22902
-0.000166288431501016,-0.00296532874926925,1713350785.23001
-0.000183717827894725,-0.00296208332292736,1713350785.25246
-0.000206364027690142,-0.00294809183105826,1713350785.25355
-0.000224923322093673,-0.00295035168528557,1713350785.28825
-0.000247545482125133,-0.00294006220065057,1713350785.28927
-0.000259517662925646,-0.00294321146793663,1713350785.39694
-0.000219754598219879,-0.0029218876734376,1713350785.39844
-0.000199223984964192,-0.00289916922338307,1713350785.40514
-0.000222206741455011,-0.00288450461812317,1713350785.40621
-0.000213576189707965,-0.0028885193169117,1713350785.43656
-0.000226485950406641,-0.00288880779407918,1713350785.43904
-0.000233650032896548,-0.00290118856355548,1713350785.45652
-0.000231726793572307,-0.00290234270505607,1713350785.45749
-0.000223240480409004,-0.00290075596421957,1713350785.4969
-0.000216773580177687,-0.00287902331911027,1713350785.49786
-0.000216292770346627,-0.00286296429112554,1713350785.53711
-0.000225836862227879,-0.00285438168793917,1713350785.53763
-0.000238097534747794,-0.00284815533086658,1713350785.5608
-0.000240092907915823,-0.00285882921889424,1713350785.56198
-0.000236631065490656,-0.00286950333975255,1713350785.60483
-0.000231534475460649,-0.00286885420791805,1713350785.60612
-0.000220019050175324,-0.00287250825203955,1713350785.70917
-0.000208479585126042,-0.00286315660923719,1713350785.71025
-0.000198238310986199,-0.00286272377707064,1713350785.72449
-0.000193045561900362,-0.00286782043986022,1713350785.72554
-0.000189824131666683,-0.00287248427048326,1713350785.7324
-0.000185568947927095,-0.00287440745159984,1713350785.76044
-0.000184583288501017,-0.00287628266960382,1713350785.7844
-0.00017780385678634,-0.00288380729034543,1713350785.78584
-0.000177202848135494,-0.0028891684487462,1713350785.80847
-0.000179222246515565,-0.00290431384928524,1713350785.80916
-0.000175327673787251,-0.00291429087519646,1713350785.86465
-0.000177563444594853,-0.00293184048496187,1713350785.86585
-0.000172875545104034,-0.00294619263149798,1713350785.88451
-0.000176601824932732,-0.00294515886344016,1713350785.88588
-0.000173236156115308,-0.0029378985054791,1713350785.96085
-0.000174702625372447,-0.002946553286165,1713350785.96212
-0.000174462213180959,-0.00294393277727067,1713350785.99668
-0.000169053091667593,-0.00293676857836545,1713350785.99788
-0.000168668455444276,-0.00293537438847125,1713350786.01243
-0.000167346224770881,-0.00293087866157293,1713350786.01352
-0.000166625002748333,-0.00292414729483426,1713350786.04061
-0.000158258888404816,-0.00291931536048651,1713350786.04168
-0.000150854408275336,-0.00291003566235304,1713350786.10041
-0.000148786915815435,-0.002890779171139,1713350786.1016
-0.000145709724165499,-0.00288416794501245,1713350786.15244
-0.000144603865919635,-0.0028869325760752,1713350786.15361
-0.00014825802645646,-0.00289472169242799,1713350786.17278
-0.000150037027196959,-0.0028830380178988,1713350786.17395
-0.000134050060296431,-0.00289186090230942,1713350786.19681
-0.000154508568812162,-0.00287984078750014,1713350786.19761
-0.00014561356510967,-0.00287431129254401,1713350786.25706
-0.00014037273649592,-0.00286301225423813,1713350786.25805
-0.000147657017805614,-0.00286024762317538,1713350786.30446
-0.000129602572997101,-0.00283627910539508,1713350786.3247
-0.000115202281449456,-0.0028226722497493,1713350786.35627
-0.00020078661327716,-0.00284024584107101,1713350786.35766
-0.000133833702420816,-0.00282577355392277,1713350786.38035
-0.00011878432269441,-0.0028190182056278,1713350786.38158
-0.000162201540661044,-0.00284065469168127,1713350786.4089
-0.000143666286021471,-0.0028119501657784,1713350786.4101
-0.000233433675020933,-0.00280483416281641,1713350786.48066
-0.000143906683661044,-0.00275653670541942,1713350786.48185
-0.000242785448790528,-0.0028190421871841,1713350786.51291
-0.000315724464599043,-0.00275966199114919,1713350786.51386
-0.000137535942485556,-0.00277514406479895,1713350786.53661
-0.000137968672788702,-0.00278923194855452,1713350786.53783
-0.000246535753831267,-0.00281106075271964,1713350786.58441
-0.000415877351770178,-0.00283106230199337,1713350786.58586
-3.13488671963569E-05,-0.00280065112747252,1713350786.60085
-0.000147152168210596,-0.00279920874163508,1713350786.60188
-0.0001903289812617,-0.00279336678795516,1713350786.65629
-0.000175592125742696,-0.00278201978653669,1713350786.657
-0.000205835123779252,-0.00280654104426503,1713350786.70083
-0.000183934200322256,-0.00279009738005698,1713350786.70213
-0.000198382564121857,-0.00278680375777185,1713350786.71663
-0.000203839765163138,-0.00277430261485279,1713350786.7176
-0.000203815725399181,-0.00279187643900514,1713350786.76082
-0.000220403700950555,-0.00277884630486369,1713350786.76201
-0.000315844663418829,-0.00275302678346634,1713350786.8051
-0.000202012684894726,-0.00277776457369328,1713350786.80605
-0.00020496966317296,-0.00278651528060436,1713350786.88018
-0.000214153158594854,-0.00275333924219012,1713350786.88102
-0.000186458448297344,-0.00271999510005116,1713350786.8972
-0.000191074228496291,-0.00280656502582133,1713350786.89787
-0.000183838026714511,-0.0027538922149688,1713350786.98062
-0.000182371557457373,-0.00276689813472331,1713350786.98207
-0.000175760404090397,-0.00276204198598862,1713350787.00099
-0.000135853100800887,-0.00278940005227923,1713350787.00196
-0.000128184168715961,-0.00279139541089535,1713350787.06051
-0.000148185907164589,-0.00278651528060436,1713350787.06175
-0.000177419206011109,-0.0027925013564527,1713350787.06859
-0.00023725611390546,-0.00278252456337214,1713350787.06969
-0.000261777458945289,-0.0027746872510761,1713350787.09664
-0.000264469999819994,-0.00277615385130048,1713350787.0978
-0.000251848716288805,-0.00276035908609629,1713350787.12449
-0.000222471178858541,-0.00273314537480474,1713350787.12549
-0.000264518079347908,-0.00275771482847631,1713350787.16468
-0.000178260626853444,-0.00274175172671676,1713350787.16658
-0.000132271074107848,-0.00272593321278691,1713350787.20478
-0.000249396602157503,-0.00277725979685783,1713350787.20628
-0.00025348347844556,-0.00272905849851668,1713350787.24837
-0.00025903683854267,-0.00273066922090948,1713350787.24962
-0.000246800220338628,-0.00273987674154341,1713350787.33643
-0.00021410507906694,-0.00273427530191839,1713350787.33769
-0.000216292770346627,-0.00271360040642321,1713350787.3765
-0.000235813684412278,-0.00268446328118443,1713350787.37727
-0.000249468721449375,-0.00267412583343685,1713350787.40847
-0.000244901020778343,-0.00266145635396242,1713350787.40972
-0.000233842365560122,-0.00265220087021589,1713350787.45681
-0.000240092907915823,-0.00266049476340413,1713350787.45785
-0.000238145614275709,-0.00265736947767436,1713350787.49237
-0.000218023677007295,-0.00266734627075493,1713350787.49309
-0.00023266437347047,-0.00265773013234138,1713350787.51659
-0.000234539533266798,-0.00266958214342594,1713350787.5175
-0.00022975547472015,-0.00267371698282659,1713350787.54471
-0.000218264089198783,-0.00266775512136519,1713350787.54554
-0.000226389791350812,-0.00267032743431628,1713350787.59674
-0.000228938093641773,-0.00266287475824356,1713350787.5979
-0.000224057861487381,-0.00265208049677312,1713350787.62428
-0.000214946499909274,-0.00265876390039921,1713350787.62523
-0.000209441204788163,-0.00265708100050688,1713350787.64855
-0.000200401962501928,-0.00264796963892877,1713350787.64967
-0.000196675682673231,-0.00264407508075237,1713350787.68884
-0.000187131590791978,-0.00264467601664364,1713350787.68992
-0.000179510738234967,-0.00264833029359579,1713350787.72845
-0.000176361427293159,-0.00267977523617446,1713350787.72967
-0.000171553314430639,-0.00268150609917939,1713350787.81291
-0.000192612831597216,-0.00268643442541361,1713350787.81391
-0.000194151420146227,-0.00268196291290224,1713350787.81516
-0.000191050188732333,-0.00266458163969219,1713350787.81605
-0.000207277567824349,-0.00266616838052869,1713350787.84458
-0.00018350147001911,-0.00265657622367144,1713350787.84582
-0.000212518396438099,-0.00265232101082802,1713350787.90843
-0.000212686689337715,-0.00264912354759872,1713350787.90965
-0.000188910591532476,-0.00260351877659559,1713350787.96466
-0.000156455847900361,-0.00258132931776345,1713350787.96592
-0.000148738836287521,-0.00257250643335283,1713350788.00459
-0.000167562582646497,-0.00259065697900951,1713350788.0055
-0.000154652807395905,-0.00254885037429631,1713350788.0246
-0.000185761280590668,-0.00259510450996459,1713350788.02553
-0.000188934631296434,-0.00259135407395661,1713350788.10071
-0.000142752745887265,-0.00261277426034212,1713350788.10203
-0.000109071945189498,-0.00259919138625264,1713350788.12874
-0.000219201669096947,-0.00259361392818391,1713350788.1298
-0.000175351713551208,-0.00262174149975181,1713350788.1852
-7.74345899117179E-05,-0.00262604467570782,1713350788.18628
-0.000217182270716876,-0.00253817648626864,1713350788.24885
-8.59209030750208E-05,-0.00264253653585911,1713350788.25009
-0.000198166191694327,-0.00262090004980564,1713350788.25665
-0.000199921152670868,-0.00262380880303681,1713350788.25789
-3.83206242986489E-05,-0.002590945456177,1713350788.28045
-0.000170014725881629,-0.00263176625594497,1713350788.2816
-0.000162538111908361,-0.00261301477439702,1713350788.30455
-0.000213143459404819,-0.0026434741448611,1713350788.30565
-0.000150613996083848,-0.00267559220083058,1713350788.32481
-0.000176986475707963,-0.00263205473311245,1713350788.3259
-0.00015474898100365,-0.00262604467570782,1713350788.35655
-0.0002004740817938,-0.00261743809096515,1713350788.35772
-0.000277499988442287,-0.00263118930160999,1713350788.43671
-0.000186458448297344,-0.00263717537745833,1713350788.43821
-0.000175544046214782,-0.00261503411456943,1713350788.51252
-0.000236895502894185,-0.00260885572060943,1713350788.51347
-0.000191050188732333,-0.00262962677516043,1713350788.53696
-0.000202950264792889,-0.00258935871534049,1713350788.5526
-0.000220860471017659,-0.00259464769624174,1713350788.56089
-0.000222471178858541,-0.00259046466089785,1713350788.56205
-0.000228793840506114,-0.00262969871982932,1713350788.56843
-0.000222423099330626,-0.00261085107922554,1713350788.56946
-0.000223985742195509,-0.00264929188415408,1713350788.62434
-0.000220547939534299,-0.0026110194157809,1713350788.62555
-0.000198767214897089,-0.00263246358372271,1713350788.65274
-0.000214826286537573,-0.00263467524200678,1713350788.65387
-0.000197757501155138,-0.00263763219118118,1713350788.69708
-0.000194055261090398,-0.00262996321544051,1713350788.69798
-0.000188357647857629,-0.00263133365660906,1713350788.75669
-0.000186819059308618,-0.00267862132750452,1713350788.75771
-0.000175279594259337,-0.00261849584057927,1713350788.78067
-0.000205907243071124,-0.00265131122432649,1713350788.78169
-0.000233698112424463,-0.00265013333410025,1713350788.83316
-0.000262907386058941,-0.00265549425967038,1713350788.83429
-0.000310820178128779,-0.00267063989304006,1713350788.85228
-0.000327432207996026,-0.00267777987755835,1713350788.85315
-0.000340029451763257,-0.00267157750204206,1713350788.88101
-0.000352362229023129,-0.00266792322508991,1713350788.88214
-0.000379023200366646,-0.00265696085989475,1713350788.92436
-0.00034582320949994,-0.00265465280972421,1713350788.92572
-0.00030993067775853,-0.00266342773102224,1713350788.97353
-0.00029872779850848,-0.0026441952213645,1713350788.97439
-0.000293006130959839,-0.00265015731565654,1713350789.00036
-0.000293030170723796,-0.00265559041872621,1713350789.00159
-0.000298319093417376,-0.00266275461763144,1713350789.04843
-0.00029158775578253,-0.00265924469567835,1713350789.07259
-0.000294063909677789,-0.00266751460731029,1713350789.10505
-0.000309618160827085,-0.00267176982015371,1713350789.1061
-0.000318104459438473,-0.00268020806834102,1713350789.15253
-0.000332384544890374,-0.00264604645781219,1713350789.15354
-0.000331927789375186,-0.00264203152619302,1713350789.17268
-0.000311974115902558,-0.00264001218602061,1713350789.17386
-0.000271778349997476,-0.00262688612565398,1713350789.22842
-0.000268556905211881,-0.00261977012269199,1713350789.23045
-0.000282861030427739,-0.00261666881851852,1713350789.24921
-0.000286875787423924,-0.00263145379722118,1713350789.25061
-0.000263580499449745,-0.00263128546066582,1713350789.3004
-0.00025771462242119,-0.00263111712411046,1713350789.30154
-0.000267427007202059,-0.00263890624046326,1713350789.32046
-0.000265960523393005,-0.00262618879787624,1713350789.32173
-0.000265046983258799,-0.00262609263882041,1713350789.38919
-0.000258916639722884,-0.00262328004464507,1713350789.3904
-0.00024766568094492,-0.00261476961895823,1713350789.41658
-0.00023910723393783,-0.00261085107922554,1713350789.41769
-0.000217831358895637,-0.00260883173905313,1713350789.44453
-0.000217062057345174,-0.00263356929644942,1713350789.44579
-0.000210330705158412,-0.002636430086568,1713350789.50445
-0.000205835123779252,-0.00264866673387587,1713350789.50584
-0.000203575313207693,-0.00267479894682765,1713350789.60439
-0.000205811084015295,-0.00269936840049922,1713350789.60557
-0.000212638595257886,-0.00269609875977039,1713350789.66064
-0.000209369085496292,-0.00269915186800063,1713350789.66168
-0.000207638164283708,-0.00270016165450215,1713350789.6808
-0.000213383857044391,-0.00269710854627192,1713350789.71665
-0.000210763435461558,-0.00270150788128376,1713350789.76061
-0.000213864666875452,-0.00270285410806537,1713350789.76169
-0.000214008920011111,-0.00270328694023192,1713350789.82059
-0.000210931728361174,-0.00270417635329068,1713350789.82179
-0.000190304941497743,-0.00269977701827884,1713350789.85657
-0.000189727958058938,-0.00268061668612063,1713350789.8577
-0.000170543615240604,-0.00267345272004604,1713350789.88078
-0.000173356354935095,-0.00267448625527322,1713350789.88188
-0.000212927086977288,-0.0026811936404556,1713350789.90028
-0.000258700281847268,-0.00268710753880441,1713350789.9019
-0.000179294365807436,-0.00267977523617446,1713350789.94084
-8.92384923645295E-05,-0.00266186497174203,1713350789.94213
-0.00013493956066668,-0.00264506065286696,1713350789.9563
-0.000365151820005849,-0.00269386311993003,1713350789.95739
-1.29338122860645E-05,-0.0026480897795409,1713350789.98076
-9.17146680876613E-05,-0.0026451088488102,1713350789.98186
-0.000156479887664318,-0.00265015731565654,1713350790.00842
-0.000319402664899826,-0.00262255873531103,1713350790.00968
-0.000230861332966015,-0.00262150098569691,1713350790.03682
-6.50777510600164E-05,-0.0026473926845938,1713350790.03792
-0.000252089143032208,-0.0026867229025811,1713350790.06428
-0.00011363964586053,-0.00265917251817882,1713350790.06523
-0.000144099016324617,-0.00265429238788784,1713350790.08058
-0.000378181779524311,-0.00268549681641161,1713350790.0825
-0.000272836128715426,-0.00274906004779041,1713350790.12062
-0.000105369697848801,-0.00270879222080111,1713350790.12176
-0.000180448318133131,-0.00269508920609951,1713350790.186
-0.00050405808724463,-0.0027161967009306,1713350790.18703
-4.69992628495675E-05,-0.00270852772518992,1713350790.20033
-0.000183212978299707,-0.00269198790192604,1713350790.20176
-0.000242520996835083,-0.00266150454990566,1713350790.24171
-0.000157177069922909,-0.00268891057930887,1713350790.24275
-0.000186819059308618,-0.00269321398809552,1713350790.29697
-0.00025824352633208,-0.00264551746658981,1713350790.29767
-0.000135276131913997,-0.00267410161904991,1713350790.32443
-0.000188525940757245,-0.00267741922289133,1713350790.32556
-0.000211124046472833,-0.00268698739819229,1713350790.40044
-0.000203238756512292,-0.0027045130264014,1713350790.40139
-0.000320195977110416,-0.002697444986552,1713350790.41326
-6.72894821036607E-05,-0.00267708278261125,1713350790.41366
-0.00014671943790745,-0.00264712818898261,1713350790.46447
-0.000195593864191324,-0.00272021139971912,1713350790.46574
-0.000106307277746964,-0.00273451558314264,1713350790.48881
-0.000151359257870354,-0.00274059781804681,1713350790.48993
-0.000138329283799976,-0.00275365193374455,1713350790.54086
-0.000167538542882539,-0.00275675300508738,1713350790.54222
-0.000140661213663407,-0.00275951786898077,1713350790.57647
-0.000130035303300247,-0.00275644054636359,1713350790.57726
-0.000138617775519378,-0.00275307497940958,1713350790.6088
-0.000169437742442824,-0.00275620026513934,1713350790.60963
-0.000183597629074939,-0.00277485558763146,1713350790.65669
-0.000207493925699964,-0.00277509610168636,1713350790.65763
-0.000241415138589218,-0.00278194760903716,1713350790.70051
-0.000263700727373362,-0.00280887307599187,1713350790.70124
-0.000284063047729433,-0.00278622680343688,1713350790.73631
-0.000280817592283711,-0.0027602871414274,1713350790.73763
-0.000264926784439012,-0.00273932376876473,1713350790.79276
-0.000270311866188422,-0.00275413272902369,1713350790.7939
-0.000232520134886727,-0.00274391542188823,1713350790.81327
-0.000260383123531938,-0.00277483160607517,1713350790.81413
-0.000286274793324992,-0.00279089063405991,1713350790.84078
-0.000302357919281349,-0.00279019353911281,1713350790.84197
-0.000273365003522485,-0.00279048201628029,1713350790.89683
-0.000279519386822358,-0.00279089063405991,1713350790.89803
-0.000280937791103497,-0.00279060215689242,1713350790.93253
-0.000274086225545034,-0.00279161194339395,1713350790.93376
-0.000263147783698514,-0.0027934149838984,1713350790.96878
-0.000258940679486841,-0.00280019431374967,1713350790.96978
-0.00024994951672852,-0.00279101077467203,1713350791.02497
-0.000256488565355539,-0.00279396795667708,1713350791.02575
-0.000258940679486841,-0.00279401591978967,1713350791.06424
-0.000256344297667965,-0.00280581973493099,1713350791.06547
-0.000247401214437559,-0.00279488135129213,1713350791.13647
-0.000233698112424463,-0.00279202056117356,1713350791.13791
-0.000235525192692876,-0.00279187643900514,1713350791.18447
-0.000230933452257887,-0.00278858281672001,1713350791.1856
-0.000244155758991837,-0.00276459031738341,1713350791.20847
-0.000246752140810713,-0.00276266713626683,1713350791.20948
-0.000250382261583582,-0.00273896311409771,1713350791.26044
-0.000266369228484109,-0.00273970840498805,1713350791.26168
-0.000249588920269161,-0.00273410696536303,1713350791.3163
-0.000253243080805987,-0.00273261638358235,1713350791.31752
-0.000244949100306258,-0.00272725545801222,1713350791.36852
-0.000240790075622499,-0.00272985175251961,1713350791.36952
-0.00023773692373652,-0.00272973161190748,1713350791.3845
-0.000227086973609403,-0.00273196725174785,1713350791.38558
-0.000210763435461558,-0.00274218455888331,1713350791.43651
-0.000190641498193145,-0.00274975737556815,1713350791.43768
-0.000188501900993288,-0.0027623544447124,1713350791.45654
-0.000193622530787252,-0.00276579242199659,1713350791.45776
-0.000199248024728149,-0.00278115435503423,1713350791.4925
-0.000195569809875451,-0.00279512186534703,1713350791.4939
-0.000188021091162227,-0.00281543610617518,1713350791.52841
-0.000186001678230241,-0.00282120588235557,1713350791.52952
-0.000181169525603764,-0.00283175962977111,1713350791.54553
-0.000170375322340988,-0.00283024506643414,1713350791.54634
-0.000173524633282796,-0.00282930745743215,1713350791.56839
-0.000172947664395906,-0.00281098857522011,1713350791.56966
-0.000159076269483194,-0.00280377641320229,1713350791.61302
-0.000149796629557386,-0.00280149257741868,1713350791.6146
-0.000142103643156588,-0.00279132346622646,1713350791.64073
-0.000134891481138766,-0.00275725801475346,1713350791.64176
-0.000123856880236417,-0.00274124694988132,1713350791.69267
-0.000105706269096117,-0.00273636681959033,1713350791.6939
-0.000144940437166952,-0.00277346116490662,1713350791.72436
-0.000136742601171136,-0.00277701928280294,1713350791.72548
-0.000123592428280972,-0.0027703361120075,1713350791.7606
-0.000107389103504829,-0.00274687237106264,1713350791.76179
-0.000285577611066401,-0.00274908426217735,1713350791.84429
-0.000315243640216067,-0.00276170554570854,1713350791.84552
-3.43779765898944E-06,-0.00274280947633088,1713350791.87659
-0.00012383284047246,-0.00270710932090878,1713350791.87778
-0.000113735812192317,-0.00272470712661743,1713350791.90859
-3.0940180295147E-05,-0.00271896133199334,1713350791.91008
-0.000115755210572388,-0.00268246792256832,1713350791.92834
-5.72405333514325E-05,-0.00270684482529759,1713350791.93002
2.85601654468337E-05,-0.00273143849335611,1713350791.96459
-0.000120899887406267,-0.00271701416932046,1713350791.96567
-0.000231414262088947,-0.00273045268841088,1713350792.07298
-8.14253216958605E-05,-0.00270369555801153,1713350792.0743
-2.37760978052393E-05,-0.00267213047482073,1713350792.09682
-0.000114024296635762,-0.00272682262584567,1713350792.09813
-6.11110590398312E-05,-0.00280122808180749,1713350792.10448
-0.000108086278487463,-0.00280904117971659,1713350792.10563
-0.000157056871103123,-0.00273225572891533,1713350792.15718
-3.72868817066774E-05,-0.00272778421640396,1713350792.15814
-0.000106595769466367,-0.00271290307864547,1713350792.20848
-0.000114889757242054,-0.002728505525738,1713350792.20914
-0.000105874547443818,-0.00270859990268946,1713350792.20997
-0.000144387508044019,-0.00270254164934158,1713350792.21118
2.59157059190329E-05,-0.00271283113397658,1713350792.27661
-7.57757879910059E-05,-0.00271701416932046,1713350792.27779
-7.41169933462515E-05,-0.00270477752201259,1713350792.30894
-9.14502234081738E-05,-0.00266217766329646,1713350792.31029
-0.000101547251688316,-0.00274040549993515,1713350792.33243
-9.95518857962452E-05,-0.00275494996458292,1713350792.3341
-6.51017908239737E-05,-0.00271884119138122,1713350792.38855
-4.26960032200441E-05,-0.00273336167447269,1713350792.40862
-4.40903568232898E-05,-0.00272259139455855,1713350792.44042
-3.1036339350976E-05,-0.00273184711113572,1713350792.44179
-4.80810875558291E-08,-0.00274788215756416,1713350792.4687
-7.93337903814972E-07,-0.00276961480267346,1713350792.46998
-3.28634232573677E-05,-0.00275995046831667,1713350792.4938
-5.03649389429484E-05,-0.00276951864361763,1713350792.49438
-7.89250989328138E-05,-0.00276329205371439,1713350792.54076
-0.00011710148100974,-0.00276043126359582,1713350792.54194
-0.000175712324562483,-0.00274547818116844,1713350792.56451
-0.000182539835805073,-0.00274192006327212,1713350792.56515
-0.000176962435944006,-0.00272638979367912,1713350792.61298
-0.000168980972375721,-0.00273514073342085,1713350792.61396
-0.000154821100295521,-0.00273276073858142,1713350792.72521
-0.000147945494973101,-0.00270593143068254,1713350792.72604
-0.000160470619448461,-0.00270934519357979,1713350792.74047
-0.000169389662914909,-0.00271110003814101,1713350792.74164
-0.000189078869880177,-0.00270484946668148,1713350792.76859
-0.000198598921997473,-0.00272107683122158,1713350792.76983
-0.000216701460885815,-0.00272862566635013,1713350792.79227
-0.000223432813072577,-0.00273509253747761,1713350792.79309
-0.000229322744417004,-0.00272509176284075,1713350792.82521
-0.000234635692322627,-0.0027564165648073,1713350792.82617
-0.000234058723435737,-0.00268621812574565,1713350792.84433
-0.000230861332966015,-0.00268881442025304,1713350792.84542
-0.000214946499909274,-0.00268431892618537,1713350792.89772
-0.000208094934350811,-0.00269331014715135,1713350792.8984
-0.000201147224288434,-0.00269790180027485,1713350792.92453
-0.00019306960166432,-0.00272220675833523,1713350792.95278
-0.000191627172171138,-0.00270484946668148,1713350793.00069
-0.000196843961020932,-0.00269179558381438,1713350793.00178
-0.000214129118830897,-0.00267280358821154,1713350793.02133
-0.00021674954041373,-0.00265508564189076,1713350793.02222
-0.000222350980038755,-0.00265506166033447,1713350793.05265
-0.000224682909902185,-0.00264179124496877,1713350793.05328
-0.000224370392970741,-0.00264852261170745,1713350793.08559
-0.000216052358155139,-0.00265051797032356,1713350793.08601
-0.000215667707379907,-0.00264354608952999,1713350793.13288
-0.000210282625630498,-0.00264010834507644,1713350793.13396
-0.000203358955332078,-0.00263169407844543,1713350793.15804
-0.000203527233679779,-0.00263111712411046,1713350793.15833
-0.000191891609574668,-0.00263505987823009,1713350793.21244
-0.000184294796781614,-0.00263659842312336,1713350793.21382
-0.000171264822711237,-0.00263885827735066,1713350793.26081
-0.000161119722179137,-0.00264056515879929,1713350793.26182
-0.000154893219587393,-0.00264390674419701,1713350793.29342
-0.000151695829117671,-0.00265003717504442,1713350793.29393
-0.000146863676491193,-0.00265304208733141,1713350793.33296
-0.000146454985952005,-0.0026594849769026,1713350793.33411
-0.000146262667840347,-0.0026658799033612,1713350793.39238
-0.000143714365549386,-0.00266638468019664,1713350793.39335
-0.00014888308942318,-0.00266804359853268,1713350793.41245
-0.000146671358379535,-0.00266900518909097,1713350793.41571
-0.000122270197607577,-0.00266734627075493,1713350793.44032
-0.000150229359860532,-0.0026752797421068,1713350793.44147
-0.000160110022989102,-0.0026782127097249,1713350793.51661
-0.000147945494973101,-0.00267508742399514,1713350793.51777
-0.000136742601171136,-0.00265926867723465,1713350793.54892
-0.000104047467175405,-0.00263760820962489,1713350793.54948
-9.7820971859619E-05,-0.00260380725376308,1713350793.65245
-0.000136117552756332,-0.00261361571028829,1713350793.65376
-0.000122438490507193,-0.0026133272331208,1713350793.68503
-0.000135516544105485,-0.0026126301381737,1713350793.68615
-0.000236703184782527,-0.00262575619854033,1713350793.75281
-3.58925317414105E-05,-0.00261388020589948,1713350793.75403
-5.98609512962867E-05,-0.00258794031105936,1713350793.80846
-0.000174414133653045,-0.00260445615276694,1713350793.80949
-4.44028810306918E-05,-0.00258193025365472,1713350793.83257
-0.000119601703772787,-0.00258834916166961,1713350793.83397
-0.000375921983504668,-0.00263948342762887,1713350793.85259
7.39006281946786E-05,-0.00256870803423226,1713350793.85385
-9.8662385425996E-05,-0.0026000807993114,1713350793.88067
-8.61132211866789E-05,-0.00260063377209008,1713350793.88168
-7.99107656348497E-05,-0.00263861776329577,1713350793.9085
-0.000240429464611225,-0.0026263331528753,1713350793.90975
1.10105684143491E-05,-0.00263784849084914,1713350793.98092
-7.43333584978245E-05,-0.00264457985758781,1713350793.98199
-0.000124073238112032,-0.00263626198284328,1713350794.03291
-0.000199464382603765,-0.00264246435835958,1713350794.03416
-0.000125491627841257,-0.00260448036715388,1713350794.05668
-0.000154340290464461,-0.00263457908295095,1713350794.05781
-0.000138425442855805,-0.00261815940029919,1713350794.06879
-0.000150181265780702,-0.00260738912038505,1713350794.06987
-0.000136934933834709,-0.00256599136628211,1713350794.15223
-0.000158571419888176,-0.00263005937449634,1713350794.15332
-0.000234900144278072,-0.00261311093345284,1713350794.1764
-0.000111283676233143,-0.00260839890688658,1713350794.17759
-0.000178044254425913,-0.00260508130304515,1713350794.18892
-0.000163403572514653,-0.0026055620983243,1713350794.19001
-0.000135612703161314,-0.00258815684355795,1713350794.21271
-0.000117774616228417,-0.00257531902752817,1713350794.21388
-0.00015258532948792,-0.00262832851149142,1713350794.29686
-0.00010890365956584,-0.00261712563224137,1713350794.29798
-0.000133497131173499,-0.0026156350504607,1713350794.30448
-0.000140420816023834,-0.00262371264398098,1713350794.30635
-0.000132751883938909,-0.00262892944738269,1713350794.33647
-0.000117774616228417,-0.0026357090100646,1713350794.33753
-9.44312560022809E-05,-0.00265806657262146,1713350794.36459
-8.89980874489993E-05,-0.00265994179062545,1713350794.36578
-9.94557267404161E-05,-0.00267076003365219,1713350794.38452
-0.000128737112390809,-0.00266996677964926,1713350794.38557
-0.000173019783687778,-0.00266717793419957,1713350794.4365
-0.000186194010893814,-0.00266506243497133,1713350794.43809
-0.000184006319614127,-0.002657201141119,1713350794.46445
-0.000194968801224604,-0.00265763397328556,1713350794.46565
-0.000194992840988562,-0.00265734549611807,1713350794.48874
-0.000140637173899449,-0.00261779874563217,1713350794.48987
-0.000160566793056205,-0.00261044246144593,1713350794.53284
-0.000141406475449912,-0.00258794031105936,1713350794.53424
-0.000167586622410454,-0.00258969538845122,1713350794.62092
-0.000191579092643224,-0.00260426383465528,1713350794.62197
-0.000215739826671779,-0.00262849684804678,1713350794.66482
-0.000199464382603765,-0.00263174227438867,1713350794.66597
-0.000169221384567209,-0.0026419113855809,1713350794.70845
-0.000171745632542297,-0.00263260770589113,1713350794.70965
-0.000184174597961828,-0.0026025811675936,1713350794.73289
-0.000196627603145316,-0.00259332545101643,1713350794.73406
-0.000190377060789615,-0.002584767062217,1713350794.75679
-0.000186145916813985,-0.00259181088767946,1713350794.75764
-0.000180808929144405,-0.0025939263869077,1713350794.77652
-0.000174798784428276,-0.00261027412489057,1713350794.77732
-0.000178140428033657,-0.00262368866242468,1713350794.80049
-0.000175760404090397,-0.00263133365660906,1713350794.80129
-0.000171817766386084,-0.00262895366176963,1713350794.8489
-0.000159845571033657,-0.00264869094826281,1713350794.85014
-0.000157225149450824,-0.00269011268392205,1713350794.87234
-0.000159220522618853,-0.00260707666166127,1713350794.87395
-0.000157561720698141,-0.00265640788711607,1713350794.92039
-0.000158643539180048,-0.00265941303223371,1713350794.92151
-0.000154628767631948,-0.00270016165450215,1713350794.97643
-0.000156359688844532,-0.00268160225823522,1713350794.97746
-0.0001558067597216,-0.00266883685253561,1713350795.0003
-0.000152296837768517,-0.0026656633708626,1713350795.0012
-0.00014914752682671,-0.00266609620302916,1713350795.04045
-0.000154797060531564,-0.00264972471632063,1713350795.04124
-0.000155878879013471,-0.00265592709183693,1713350795.0886
-0.000155422108946368,-0.00265544629655778,1713350795.08995
-0.000159629198606126,-0.00266321143135428,1713350795.14065
-0.000163860342581756,-0.00267162546515465,1713350795.19646
-0.000166120153153315,-0.00267148134298623,1713350795.22839
-0.000164942161063664,-0.00267035141587257,1713350795.22954
-0.000163451652042568,-0.00265563861466944,1713350795.23663
-0.000156696260091849,-0.00263234321027994,1713350795.23772
-0.000148859035107307,-0.00261984230019152,1713350795.28043
-0.000147632978041656,-0.00262063555419445,1713350795.28144
-0.000160999508807436,-0.00260880752466619,1713350795.30867
-0.000168307844433002,-0.00263890624046326,1713350795.31002
-0.000158643539180048,-0.00264409906230867,1713350795.35244
-0.000144002857268788,-0.00261633237823844,1713350795.3535
-0.000133905821712688,-0.0026357329916209,1713350795.3811
-0.000148498438647948,-0.00264275283552706,1713350795.38234
-0.00017806829418987,-0.00254971603862941,1713350795.41252
-9.26522552617826E-05,-0.00261534657329321,1713350795.41433
-0.000149748535477556,-0.00261818338185549,1713350795.46455
-0.000232448015594855,-0.00261589954607189,1713350795.46548
-7.08234365447424E-05,-0.0025770019274205,1713350795.47267
-0.000165062374435365,-0.00262063555419445,1713350795.47386
-0.000187516241567209,-0.00260916817933321,1713350795.55408
-0.00013371350360103,-0.002621068386361,1713350795.55434
-0.000156888578203507,-0.00265258550643921,1713350795.57668
-0.00012005847383989,-0.00262948242016137,1713350795.57773
-8.33726007840596E-05,-0.00263909879140556,1713350795.6853
-0.000191434839507565,-0.00262948242016137,1713350795.6858
-0.000147176207974553,-0.00264631095342338,1713350795.68682
-0.000246872339630499,-0.00265958113595843,1713350795.68779
-3.42818129865918E-05,-0.0026110433973372,1713350795.70107
-0.000161889009177685,-0.00263289618305862,1713350795.72829
-0.000270311866188422,-0.00263323285616934,1713350795.75281
-0.000190569378901273,-0.00263580516912043,1713350795.75395
-0.0001741016167216,-0.00259996065869927,1713350795.78469
-0.000190256861969829,-0.00260686036199331,1713350795.78597
-0.000275456550298259,-0.00259714783169329,1713350795.79644
-0.000129217922221869,-0.00259719602763653,1713350795.79742
-0.000166625002748333,-0.00260041747242212,1713350795.85297
-0.000195257292944007,-0.00261089904233813,1713350795.85418
-0.000201603994355537,-0.00260707666166127,1713350795.88846
-0.000197012253920548,-0.00257613649591804,1713350795.8898
-0.000214513769606128,-0.00260229269042611,1713350795.94073
-0.000206051496206783,-0.00261337519623339,1713350795.94199
-0.000221677852096036,-0.00261409650556743,1713350795.96434
-0.000197829634998925,-0.00259491219185293,1713350795.96551
-0.000183886106242426,-0.00259149842895567,1713350796.00081
-0.000158258888404816,-0.00250843842513859,1713350796.00183
-0.000182347517693415,-0.00264400290325284,1713350796.05298
-0.000163379532750696,-0.00260183587670326,1713350796.05381
-0.000173524633282796,-0.00262676598504186,1713350796.13273
-0.000155205751070753,-0.00262147700414062,1713350796.13358
-0.000153474829858169,-0.00263599748723209,1713350796.15673
-0.000148233986692503,-0.0026357329916209,1713350796.15805
-0.000166072073625401,-0.00264042080380023,1713350796.17645
-0.000201315502636135,-0.00264573376625776,1713350796.17718
-0.00021643700893037,-0.00265111890621483,1713350796.20479
-0.000240669876802713,-0.00266186497174203,1713350796.20606
-0.000262618879787624,-0.00267051975242794,1713350796.26872
-0.000260791799519211,-0.00267393351532519,1713350796.32448
-0.000238866836298257,-0.00266650482080877,1713350796.37648
-0.000265575887169689,-0.00266530294902623,1713350796.3776
-0.000255190359894186,-0.00266698561608791,1713350796.40472
-0.000194151420146227,-0.00264436355791986,1713350796.40554
-0.000206484226509929,-0.00264462805353105,1713350796.43281
-0.000227952434215695,-0.00265340274199843,1713350796.43397
-0.000253820064244792,-0.0026789337862283,1713350796.47241
-0.000255118240602314,-0.00269258883781731,1713350796.47353
-0.000230861332966015,-0.00271057127974927,1713350796.50863
-0.000213984865695238,-0.00270049832761288,1713350796.50968
-0.000220860471017659,-0.00268470356240869,1713350796.5288
-0.000251416000537574,-0.00266371620818973,1713350796.52984
-0.000263412221102044,-0.00266395648941398,1713350796.55654
-0.000260503322351724,-0.00268294871784747,1713350796.55788
-0.000256200059084222,-0.00269439187832177,1713350796.60492
-0.000250526500167325,-0.00271554756909609,1713350796.60603
-0.000250262062763795,-0.00272187031805515,1713350796.63267
-0.000235765604884364,-0.00273165479302406,1713350796.63392
-0.000226702322834171,-0.00274778599850833,1713350796.68857
-0.000224803123273887,-0.00276382104493678,1713350796.68958
-0.000221581678488292,-0.00277516804635525,1713350796.69057
-0.000222639471758157,-0.00278170709498227,1713350796.6916
-0.00022076431196183,-0.00278427940793335,1713350796.75267
-0.000215571548324078,-0.00279428041540086,1713350796.75365
-0.000207493925699964,-0.00280206953175366,1713350796.77285
-0.000216028318391182,-0.00282058073207736,1713350796.77401
-0.000214417595998384,-0.0028265668079257,1713350796.9007
-0.000190160688362084,-0.00284029403701425,1713350796.90185
-0.000210426878766157,-0.00285779545083642,1713350796.903
-0.000202253082534298,-0.00288445642217994,1713350796.90422
-0.000207878576475196,-0.0028930630069226,1713350796.91261
-0.000191194441867992,-0.00289061083458364,1713350796.91396
-0.000221461479668505,-0.00289390445686877,1713350796.97242
-0.000204897543881088,-0.00287116202525795,1713350796.97381
-0.000235741565120406,-0.0028558240737766,1713350796.98481
-0.000217518827412277,-0.00287072942592204,1713350796.98595
-0.000243795147980563,-0.00287854252383113,1713350797.03446
-0.000196747801965103,-0.00288794236257672,1713350797.03464
-0.000328249559970573,-0.00289200525730848,1713350797.09253
-0.000184342876309529,-0.00290854508057237,1713350797.09373
-0.000211100006708875,-0.00288801454007626,1713350797.12429
-0.000253411359153688,-0.0028713783249259,1713350797.12521
-0.000342553685186431,-0.0028940006159246,1713350797.15288
-0.000159917690325528,-0.00290532363578677,1713350797.15396
-0.000217182270716876,-0.00287823006510735,1713350797.20082
-0.000252233381615952,-0.00287349405698478,1713350797.20179
-0.000197132452740334,-0.00291424267925322,1713350797.21675
-0.000232568214414641,-0.00296109775081277,1713350797.21784
-0.000270191667368636,-0.00291075673885643,1713350797.26474
-0.000303127191727981,-0.00292421947233379,1713350797.26591
-0.000237520565860905,-0.00291746412403882,1713350797.28065
-0.000194175459910184,-0.00292590237222612,1713350797.2817
-0.000213047285797074,-0.00297266128472984,1713350797.40481
-0.000253363279625773,-0.00294366828165948,1713350797.40601
-0.000280192529316992,-0.00294537516310811,1713350797.4364
-0.00024872345966287,-0.00298254191875458,1713350797.43724
-0.000250959215918556,-0.00296605005860329,1713350797.46079
-0.000225572410272434,-0.00296040042303503,1713350797.46193
-0.00022864960192237,-0.00294975051656365,1713350797.50885
-0.00025083901709877,-0.00292145484127104,1713350797.50997
-0.000253363279625773,-0.00297227664850652,1713350797.5326
-0.000229250610573217,-0.00295136123895645,1713350797.53334
-0.000256007740972564,-0.00296037644147873,1713350797.56062
-0.000253723876085132,-0.00295138522051275,1713350797.56149
-0.000246319395955652,-0.00296244397759438,1713350797.58885
-0.000246728101046756,-0.00294761103577912,1713350797.59003
-0.000244299997575581,-0.00297590671107173,1713350797.59672
-0.000231822952628136,-0.00295806862413883,1713350797.59789
-0.000212133745662868,-0.00296008796431124,1713350797.64439
-0.000217134176637046,-0.00295859738253057,1713350797.64555
-0.000197180532268249,-0.00294578378088772,1713350797.7163
-0.000200065391254611,-0.00292989308945835,1713350797.71743
-0.000177779817022383,-0.00295239500701427,1713350797.73276
-0.000182203279109672,-0.00296191498637199,1713350797.73424
-0.000167201971635222,-0.00295366928912699,1713350797.80434
-0.000166625002748333,-0.0029132089111954,1713350797.80565
-0.000162898722919635,-0.00298215728253126,1713350797.80702
-0.000159124349011108,-0.00299497088417411,1713350797.80766
-0.000152753607835621,-0.00295258732512593,1713350797.87289
-0.000148185907164589,-0.00295991962775588,1713350797.87401
-0.000144940437166952,-0.0029625641182065,1713350797.88518
-0.000146839636727236,-0.00296340556815267,1713350797.8861
-0.000158331022248603,-0.00296302093192935,1713350798.02878
-0.000185376629815437,-0.00295578478835523,1713350798.02986
-0.000195233253180049,-0.00296133803203702,1713350798.05639
-0.000210474958294071,-0.00295600108802319,1713350798.05731
-0.000215595588088036,-0.00296463165432215,1713350798.05823
-0.000226461910642683,-0.00295018334873021,1713350798.05902
-0.000238145614275709,-0.00294590415433049,1713350798.069
-0.000239155328017659,-0.00293287402018905,1713350798.07045
-0.000223721290240064,-0.00292378687299788,1713350798.1204
-0.000229995872359723,-0.0029054197948426,1713350798.12172
-0.000222543312702328,-0.0028914762660861,1713350798.15291
-0.000217759239603765,-0.0028791194781661,1713350798.15407
-0.000230548801482655,-0.00288097048178315,1713350798.20054
-0.000235981962759979,-0.00288750953041017,1713350798.20169
-0.000237520565860905,-0.00289825582876801,1713350798.22452
-0.000236294494243339,-0.00288147549144924,1713350798.2252
-0.000237496526096947,-0.00287837418727577,1713350798.23287
-0.000237929256400093,-0.00287421513348818,1713350798.23415
-0.000237592685152777,-0.00287282094359398,1713350798.28864
-0.000230572841246612,-0.00287178717553616,1713350798.28985
-0.000226750402362086,-0.00286832521669567,1713350798.3328
-0.000218480447074398,-0.00288265338167548,1713350798.33412
-0.000209633537451737,-0.00288339867256582,1713350798.35656
-0.000205955337150954,-0.00288772606290877,1713350798.35727
-0.000201387621928006,-0.00288914446718991,1713350798.41252
-0.000192300300113857,-0.00289282249286771,1713350798.41371
-0.000192973442608491,-0.00289222155697644,1713350798.45306
-0.000192588791833259,-0.00288674025796354,1713350798.47643
-0.000189343321835622,-0.00289224553853273,1713350798.49641
-0.000185641067218967,-0.00289253401570022,1713350798.49769
-0.000183765907422639,-0.00288926460780203,1713350798.52488
-0.000183429336175323,-0.00289397640153766,1713350798.52618
-0.000178549118572846,-0.00290190987288952,1713350798.55668
-0.000174750704900362,-0.00290496298111975,1713350798.55769
-0.000171312902239151,-0.00290623726323247,1713350798.60039
-0.000166096113389358,-0.00290712667629123,1713350798.60152
-0.000166336511028931,-0.0029047226998955,1713350798.65669
-0.000155157656990923,-0.002915492746979,1713350798.65779
-0.000153162298374809,-0.00291448319330811,1713350798.72032
-0.000159460920258425,-0.00292195961810648,1713350798.72171
-0.000163643970154226,-0.00292525324039161,1713350798.75683
-0.000148498438647948,-0.00292804185301065,1713350798.75792
-0.000156119291204959,-0.00294895726256073,1713350798.78224
-0.000277403829386458,-0.00292539759539068,1713350798.78271
-6.0125399613753E-05,-0.00291825737804174,1713350798.80845
-0.000145950136356987,-0.00289284670725465,1713350798.80957
-0.00019787771452684,-0.00290981912985444,1713350798.84143
-0.000211460617720149,-0.00289272633381188,1713350798.84207
-0.000110322049295064,-0.00289135612547398,1713350798.87645
-0.000192564752069302,-0.00290275132283568,1713350798.87779
-0.000234924184042029,-0.00289118778891861,1713350798.92853
-0.000140492935315706,-0.00285301147960126,1713350798.92992
-0.000163163160323165,-0.0028544538654387,1713350798.96069
-0.000213864666875452,-0.00284921308048069,1713350798.96178
-0.000176794157596305,-0.00281714298762381,1713350799.01243
-0.000112702065962367,-0.00282190297730267,1713350799.0405
-0.00014433941396419,-0.00283250492066145,1713350799.06066
-0.000174630506080575,-0.00282178283669055,1713350799.06197
-0.00025180063676089,-0.00284043815918267,1713350799.07663
-0.000224514631554484,-0.00281699863262475,1713350799.07791
-0.000116644710942637,-0.00279264571145177,1713350799.12426
-0.000241294925217517,-0.00283358665183187,1713350799.12526
-0.000152176638948731,-0.00277918297797441,1713350799.17268
-0.000231366182561032,-0.00289714988321066,1713350799.17388
-0.000187011377420276,-0.00281687849201262,1713350799.20057
-0.000221870170207694,-0.00283712055534124,1713350799.20158
-0.000475449807709083,-0.00282803340815008,1713350799.25246
-8.24350208858959E-05,-0.00281735928729177,1713350799.2531
-0.00019169929146301,-0.00280194939114153,1713350799.2764
-0.000205258154892363,-0.00280697387643158,1713350799.27779
-0.000190136648598127,-0.00284644844941795,1713350799.33228
-0.000220980669837445,-0.00280865654349327,1713350799.33326
-0.000206965036340989,-0.00280101178213954,1713350799.38064
-0.000203527233679779,-0.00279581896029413,1713350799.3818
-0.000183116819243878,-0.00276675401255488,1713350799.39288
-0.000232928825425915,-0.00282300892286003,1713350799.39427
-0.000180087707121857,-0.00277596153318882,1713350799.43895
-0.000188525940757245,-0.00279759801924229,1713350799.44008
-0.000191627172171138,-0.00278682773932815,1713350799.4887
-0.000170735933352262,-0.00273915543220937,1713350799.49053
-0.00019513709412422,-0.00282341754063964,1713350799.54443
-0.000165903780725785,-0.00268893479369581,1713350799.54592
-0.000170495535712689,-0.00283440412022173,1713350799.59317
-0.00017996750830207,-0.00277213915251195,1713350799.60089
-0.000148594597703777,-0.00275670504197478,1713350799.61257
-0.00012594839790836,-0.00274694454856217,1713350799.61384
-0.000135276131913997,-0.0028110365383327,1713350799.65672
-0.000118808362458367,-0.0027964198961854,1713350799.65771
-0.000112533780338708,-0.00279942504130304,1713350799.70428
-0.000109769120172132,-0.00279920874163508,1713350799.70522
-0.000112173176603392,-0.00280146859586239,1713350799.75646
-0.00013044397928752,-0.00281178182922304,1713350799.75755
-0.000149436018546112,-0.00281303189694881,1713350799.81241
-0.000158883951371536,-0.00281250313855708,1713350799.8139
-0.000172731306520291,-0.0027988962829113,1713350799.86438
-0.000178044254425913,-0.00278961658477783,1713350799.86498
-0.000182299438165501,-0.00277449493296444,1713350799.91292
-0.000178404865437187,-0.00273074116557837,1713350799.91407
-0.000165735502378084,-0.00270634004846215,1713350799.9368
-0.000167009653523564,-0.00269403122365475,1713350799.93819
-0.000161408199346624,-0.00269319000653923,1713350799.96436
-0.000179919428774156,-0.00269650761038065,1713350799.96494
-0.000184270757017657,-0.00267838081344962,1713350799.99655
-0.000191915649338625,-0.00268186675384641,1713350799.99765
-0.000186266130185686,-0.00267078401520848,1713350800.01669
-0.000172611093148589,-0.00264614261686802,1713350800.0178
-0.000175063236383721,-0.00264989282004535,1713350800.03671
-0.000188285528565757,-0.00262681394815445,1713350800.03794
-0.000192324339877814,-0.00263138161972165,1713350800.11302
-0.000188189369509928,-0.002628184389323,1713350800.11428
-0.000189655838767067,-0.00263210292905569,1713350800.16844
-0.000176914356416091,-0.00264251232147217,1713350800.19644
-0.000166096113389358,-0.00263950740918517,1713350800.22051
-0.000147416605614126,-0.00263609364628792,1713350800.22162
-0.000137704235385172,-0.0026318624150008,1713350800.27651
-0.000126549421111122,-0.00263621378690004,1713350800.27775
-0.000118952608318068,-0.00263229524716735,1713350800.29675
-0.000109360429632943,-0.00262611685320735,1713350800.29795
-0.000104936967545655,-0.00262758322060108,1713350800.32486
-0.000104864848253783,-0.00263140560127795,1713350800.32598
-0.000104624443338253,-0.00262789567932487,1713350800.3764
-9.99124968075193E-05,-0.00264342594891787,1713350800.37722
-9.89989566733129E-05,-0.00265590311028063,1713350800.40492
-9.37581207836047E-05,-0.00266936561092734,1713350800.4065
-9.45274150581099E-05,-0.00267011090181768,1713350800.42479
-9.04886037460528E-05,-0.00267554423771799,1713350800.42606
-9.37340737436898E-05,-0.00267787603661418,1713350800.45286
-9.12338582566008E-05,-0.00266578374430537,1713350800.45381
-9.99365365714766E-05,-0.00268294871784747,1713350800.5089
-9.70997498370707E-05,-0.00268754037097096,1713350800.5102
-9.72199559328146E-05,-0.00269403122365475,1713350800.54096
-9.13059848244302E-05,-0.00270501780323684,1713350800.54212
-0.000116308146971278,-0.00269552180543542,1713350800.56475
-0.000185208336915821,-0.00269809411838651,1713350800.56586
-6.2986223383632E-06,-0.00269407941959798,1713350800.64461
-0.00010866325465031,-0.00271660531871021,1713350800.64581
-0.000259060878306627,-0.00270158005878329,1713350800.66877
-8.27235053293407E-05,-0.00269730086438358,1713350800.66996
-0.00012938620056957,-0.00269999331794679,1713350800.72091
-8.65459514898248E-05,-0.00268001575022936,1713350800.7221
-0.000122799086966552,-0.00265669636428356,1713350800.74909
-2.54108545050258E-05,-0.00260111456736922,1713350800.75028
-9.59458047873341E-05,-0.00262493873015046,1713350800.76864
-9.49120658333413E-05,-0.00265950919128954,1713350800.76981
-9.29166999412701E-05,-0.00262419343926013,1713350800.82112
-0.000296972837531939,-0.00268018385395408,1713350800.82239
-0.000144579826155677,-0.00264640711247921,1713350800.85235
-0.000117846742796246,-0.00266542308963835,1713350800.8535
-6.12793446634896E-05,-0.00259358994662762,1713350800.90042
-0.000115731170808431,-0.00263104517944157,1713350800.90191
-0.000115779257612303,-0.00261347135528922,1713350800.92433
-0.000239972694544122,-0.00262763141654432,1713350800.92527
-8.58247367432341E-05,-0.00259361392818391,1713350801.02103
-0.000261104345554486,-0.00260996143333614,1713350801.02143
-6.00292369199451E-05,-0.00260686036199331,1713350801.05288
-0.000273725629085675,-0.00258431024849415,1713350801.05417
-0.000120899887406267,-0.00259952805936337,1713350801.07673
-4.75521956104785E-05,-0.0026094326749444,1713350801.07792
-0.00014296910376288,-0.00259118597023189,1713350801.10486
-0.000105057173641399,-0.00258875777944922,1713350801.10588
-0.000159917690325528,-0.00261265411973,1713350801.13622
-0.000237568645388819,-0.00261467345990241,1713350801.13699
-0.000104215752799064,-0.00258310814388096,1713350801.15652
-0.000148979248479009,-0.00255889934487641,1713350801.15765
-0.000163451652042568,-0.00259130611084402,1713350801.21236
-0.000149099447298795,-0.00259154639206827,1713350801.21305
-0.000152825727127492,-0.00259435921907425,1713350801.32043
-0.00014825802645646,-0.00259185908362269,1713350801.32183
-0.000150758249219507,-0.00258938292972743,1713350801.34054
-0.000126717699458823,-0.00257827620953321,1713350801.34176
-0.000116716837510467,-0.00258325249888003,1713350801.39689
-8.31802753964439E-05,-0.00256430846638978,1713350801.39815
-9.62583362706937E-05,-0.00259371008723974,1713350801.41671
-8.79403087310493E-05,-0.00259635457769036,1713350801.41739
-8.21946159703657E-05,-0.00258168997243047,1713350801.46866
-7.64489232096821E-05,-0.00258589698933065,1713350801.4698
-7.11840475560166E-05,-0.00258464692160487,1713350801.53639
-6.23611704213545E-05,-0.00259166676551104,1713350801.5372
-6.75298870191909E-05,-0.00259731616824865,1713350801.56834
-8.79883882589638E-05,-0.00259861443191767,1713350801.56914
-0.000108687294414267,-0.00259996065869927,1713350801.58931
-0.000154460489284247,-0.00261515425518155,1713350801.59096
-0.000176962435944006,-0.00260435999371111,1713350801.62045
-0.000207517965463921,-0.00259676319546998,1713350801.62158
-0.000189511600183323,-0.00259724399074912,1713350801.64451
-0.000128184168715961,-0.00259342161007226,1713350801.64664
-0.000140300602652133,-0.00257128034718335,1713350801.67698
-0.000124145357403904,-0.00256070238538086,1713350801.67812
-0.000108326683402993,-0.00255817826837301,1713350801.70093
-0.000178044254425913,-0.00254966784268618,1713350801.70193
-0.00019893549324479,-0.00255591841414571,1713350801.77232
-0.000203791685635224,-0.00256945332512259,1713350801.77322
-0.000188934631296434,-0.00256166397593915,1713350801.85287
-0.000176000816281885,-0.00254310481250286,1713350801.85406
-0.000176601824932732,-0.00251853535883129,1713350801.90851
-0.000198238310986199,-0.00250411103479564,1713350801.90933
-0.000210234546102583,-0.00250992877408862,1713350801.93271
-0.000204729265533388,-0.00249199452809989,1713350801.93385
-0.000208479585126042,-0.00250216363929212,1713350801.98021
-0.000196218912606128,-0.00250401487573981,1713350801.98099
-0.000197757501155138,-0.00250949617475271,1713350802.00875
-0.000192949402844533,-0.00250759697519243,1713350802.01006
-0.00019386294297874,-0.00251634768210351,1713350802.04081
-0.000192901323316619,-0.00252233375795186,1713350802.04194
-0.000198118112166412,-0.00251569855026901,1713350802.06487
-0.000194463951629587,-0.00251137115992606,1713350802.06619
-0.000177539404830895,-0.00250752479769289,1713350802.09255
-0.000168860773555934,-0.00251040956936777,1713350802.09335
-0.000167586622410454,-0.00251052994281054,1713350802.17272
-0.000158691618707962,-0.00252113165333867,1713350802.17431
-0.000153546949150041,-0.00252923346124589,1713350802.19682
-0.000144483667099848,-0.00256327469833195,1713350802.19812
-0.000144363453728147,-0.00258440640754998,1713350802.221
-0.000144050936796702,-0.00257142446935177,1713350802.22293
-0.000142945063998923,-0.00258440640754998,1713350802.24857
-0.000144675985211507,-0.00261416868306696,1713350802.24966
-0.000144363453728147,-0.00262962677516043,1713350802.29632
-0.000162730430020019,-0.00263061234727502,1713350802.29802
-0.000194584150449373,-0.00263373763300478,1713350802.32028
-0.000223865528823808,-0.00262537156231701,1713350802.32142
-0.000125251230201684,-0.00262775155715644,1713350802.34884
-0.000181554176378995,-0.00263015553355217,1713350802.37235
-7.94059160398319E-05,-0.0026124136056751,1713350802.40505
-9.81575358309783E-05,-0.00257683359086514,1713350802.40627
-0.00017684223712422,-0.00257558352313936,1713350802.42205
-5.90195340919308E-05,-0.00255873124115169,1713350802.42311
-0.000134290472487919,-0.00256570288911462,1713350802.47272
-0.000214585888898,-0.00256666447967291,1713350802.47371
-0.000169269464095123,-0.00258205039426684,1713350802.50865
-0.000217302469536662,-0.00258505553938448,1713350802.50982
-0.000111211549665313,-0.0025296660605818,1713350802.53429
-0.000189752012374811,-0.00252721388824284,1713350802.53459
-0.000197108412976377,-0.00253485888242722,1713350802.56434
-0.000133304813061841,-0.00250266864895821,1713350802.56549
-0.000188453821465373,-0.00253370497375727,1713350802.60853
-0.000103085847513285,-0.00252932962030172,1713350802.60956
-0.000134314512251876,-0.00250257248990238,1713350802.64861
-0.0001437624450773,-0.00248211389407516,1713350802.64961
-0.000172803425812162,-0.00251072226092219,1713350802.70432
-0.000251680437941104,-0.00254380190744996,1713350802.70536
-0.000264590227743611,-0.00253877742215991,1713350802.73268
-9.32773036765866E-05,-0.00252675730735064,1713350802.73366
-0.000132679750095122,-0.00252295890823007,1713350802.76436
-0.00041267994674854,-0.0025429124943912,1713350802.7652
-5.28891941939946E-05,-0.00251478492282331,1713350802.79298
-0.000213504055864178,-0.00249485531821847,1713350802.79424
-0.000134122194140218,-0.00248831650242209,1713350802.84042
-0.000220475820242427,-0.00251096254214644,1713350802.84145
-0.000156359688844532,-0.00250829407013953,1713350802.89746
-0.000102508878626395,-0.00251625152304769,1713350802.91637
-0.00017467858560849,-0.0024825946893543,1713350802.93245
-0.000175568085978739,-0.00248386897146702,1713350802.93372
-0.000189896250958554,-0.00251040956936777,1713350803.00073
-0.000191723331226967,-0.00250372639857233,1713350803.00157
-0.000210282625630498,-0.00253728707320988,1713350803.02111
-0.000132511471747421,-0.00251055392436683,1713350803.02216
-0.000201219343580306,-0.0025381282903254,1713350803.04895
-0.000194271633517928,-0.00251038558781147,1713350803.05006
-0.000181722469278611,-0.00247369986027479,1713350803.09268
-0.000206051496206783,-0.00254125357605517,1713350803.09414
-0.000200450042029843,-0.00248889345675707,1713350803.1209
-0.000196555483853444,-0.0025383688043803,1713350803.12203
-0.000197901754290797,-0.00247603165917099,1713350803.15649
-0.000197661342099309,-0.00254365778528154,1713350803.15751
-0.000173019783687778,-0.00249874987639487,1713350803.20476
-0.000181650335434824,-0.00253762351348996,1713350803.20608
-0.00018657864711713,-0.00252654077485204,1713350803.2405
-0.000159124349011108,-0.00253394525498152,1713350803.24238
-0.000160037889145315,-0.00250675552524626,1713350803.28429
-0.000149676416185685,-0.00254101329483092,1713350803.285
-0.000139218784170225,-0.00251730927266181,1713350803.35697
-0.000135853100800887,-0.00252723810262978,1713350803.35829
-0.000128544779727235,-0.00253642140887678,1713350803.36487
-0.00012029887875542,-0.00254300865344703,1713350803.36605
-0.00014825802645646,-0.00255601457320154,1713350803.41314
-0.000163499731570482,-0.00255240849219263,1713350803.41433
-0.000174053537193686,-0.00255358638241887,1713350803.44453
-0.000177395166247152,-0.00255351443774998,1713350803.44581
-0.00021009030751884,-0.00256416434422135,1713350803.51287
-0.000225764742936008,-0.00256200064904988,1713350803.51398
-0.000238650463870727,-0.00257144868373871,1713350803.5205
-0.000246271316427737,-0.00257445359602571,1713350803.52153
-0.000239155328017659,-0.00257106404751539,1713350803.57298
-0.000223480892600492,-0.00255707232281566,1713350803.57423
-0.000226413831114769,-0.00254125357605517,1713350803.60078
-0.000208527664653957,-0.00251791020855308,1713350803.60182
-0.000214537809370086,-0.00255243247374892,1713350803.66085
-0.000233289421885274,-0.00255356240086257,1713350803.66198
-0.000264181522652507,-0.00256789056584239,1713350803.69272
-0.000254228740232065,-0.00257796351797879,1713350803.69399
-0.00021273476886563,-0.00257159280590713,1713350803.71654
-0.000201676113647409,-0.00255339406430721,1713350803.71764
-0.00022759182320442,-0.00251858355477452,1713350803.76852
-0.000247281015617773,-0.00250745262019336,1713350803.76958
-0.000272114906692877,-0.00251266942359507,1713350803.81262
-0.000268148229224607,-0.00250944797880948,1713350803.81365
-0.000246896379394457,-0.0025104817468673,1713350803.8604
-0.000226461910642683,-0.00251992978155613,1713350803.8616
