tibialis_anterior,gastrocnemius,t
0.000475113251013681,-0.00624847365543246,1713350763.72055
0.00048932118806988,-0.00624751206487417,1713350763.72223
0.000482613890198991,-0.00624241540208459,1713350763.74464
0.00047583447303623,-0.00624518003314734,1713350763.77238
0.000484320771647617,-0.00623926613479853,1713350763.8244
0.000485426629893482,-0.00624193483963609,1713350763.82529
0.000488023011712357,-0.00623902585357428,1713350763.87663
0.000482613890198991,-0.00623873714357615,1713350763.87786
0.000483166833873838,-0.006239362526685,1713350763.90473
0.000493816798552871,-0.00624203076586127,1713350763.90578
0.000489922240376473,-0.00624491553753614,1713350763.92887
0.000488864432554692,-0.00624212715774775,1713350763.92981
0.000512231839820743,-0.00624282425269485,1713350763.9567
0.000461289950180799,-0.00623522745445371,1713350763.95779
0.000523506838362664,-0.00623303977772594,1713350764.00465
0.000536657054908574,-0.00623390497639775,1713350764.00576
0.00050898635527119,-0.00623645354062319,1713350764.02858
0.000517328444402665,-0.00623178947716951,1713350764.02958
0.000500403926707804,-0.00623313570395112,1713350764.05724
0.000527882250025868,-0.00623068353161216,1713350764.05837
0.000505091797094792,-0.00623525120317936,1713350764.1127
0.000487710494780913,-0.0062338812276721,1713350764.11378
0.000511775084305555,-0.00623484281823039,1713350764.14071
0.000538676453288645,-0.00623941048979759,1713350764.14194
0.000454318185802549,-0.00623736716806889,1713350764.2016
0.000527858210261911,-0.00624253554269671,1713350764.20185
0.000518290093168616,-0.00624126149341464,1713350764.23264
0.000538484135176986,-0.00624986784532666,1713350764.23365
0.00053615216165781,-0.00625441176816821,1713350764.28519
0.000522016372997314,-0.0062528969720006,1713350764.28574
0.000526920601259917,-0.00625782553106546,1713350764.30836
0.000549110060092062,-0.00625967653468251,1713350764.33655
0.000503721472341567,-0.00625549349933863,1713350764.36458
0.000516318716108799,-0.00625708000734448,1713350764.36576
0.000530670920852572,-0.0062533300369978,1713350764.41391
0.000524035771377385,-0.00625320943072438,1713350764.41434
0.000537546526174992,-0.006255853921175,1713350764.43647
0.000481003196910024,-0.00626301812008023,1713350764.43776
0.000537402287591249,-0.00625700829550624,1713350764.46077
0.000497663277201355,-0.00625643087550998,1713350764.46211
0.000530983495991677,-0.00626157596707344,1713350764.51652
0.000494129315484315,-0.0062540271319449,1713350764.51805
0.000536801293492317,-0.0062613352201879,1713350764.54045
0.000532930775079876,-0.00626575900241733,1713350764.54124
0.000526463845744729,-0.00625871494412422,1713350764.59239
0.000526271527633071,-0.0062779956497252,1713350764.5934
0.000520165252964944,-0.00627676956355572,1713350764.62038
0.000482085015391931,-0.00625455612316728,1713350764.62131
0.00049840850988403,-0.00625878712162375,1713350764.67637
0.000582622538786382,-0.00623986730352044,1713350764.67762
0.000530406483449042,-0.00624426640570164,1713350764.69636
0.000529757409822196,-0.00624527642503381,1713350764.69728
0.000536440697032958,-0.00621205242350698,1713350764.75635
0.000514058920089155,-0.00621738936752081,1713350764.75733
0.000523771333973855,-0.00627751462161541,1713350764.80086
0.00053704169113189,-0.0062409732490778,1713350764.80215
0.000524660805240274,-0.00626866752281785,1713350764.86436
0.000529204495251179,-0.00629742024466395,1713350764.86538
0.000535214610863477,-0.00624768016859889,1713350764.9002
0.000548941781744361,-0.00629040040075779,1713350764.90139
0.000559183012228459,-0.00627773115411401,1713350764.92874
0.000560529297217727,-0.00625671958550811,1713350764.92989
0.000558053143322468,-0.00634804973378778,1713350764.95226
0.000561659224331379,-0.00622693356126547,1713350764.95304
0.000559567648451775,-0.00629660300910473,1713350765.01288
0.000565818219911307,-0.00625167088583112,1713350765.01401
0.000565649941563606,-0.00623385701328516,1713350765.03689
0.00056182750267908,-0.006230010651052,1713350765.03803
0.000547114701475948,-0.00622534658759832,1713350765.07652
0.000535551167558879,-0.00621212460100651,1713350765.07779
0.000507375632878393,-0.00622284645214677,1713350765.10516
0.000519275723490864,-0.0061950315721333,1713350765.10566
0.000521559559274465,-0.00620479183271527,1713350765.14905
0.000496148713864386,-0.00621645152568817,1713350765.15037
0.000511919322889298,-0.00622582761570811,1713350765.22056
0.000511174090206623,-0.00622150022536516,1713350765.22142
0.000571828335523605,-0.00621561007574201,1713350765.25638
0.000428714993176982,-0.00621303776279092,1713350765.25711
0.000495451560709626,-0.00620832573622465,1713350765.2725
0.000495715998113155,-0.0062414538115263,1713350765.27348
0.000484104413772002,-0.00616584625095129,1713350765.29677
0.000512087601236999,-0.00615656655281782,1713350765.2984
0.000589786621276289,-0.00614668615162373,1713350765.35281
0.000502591603435576,-0.00615868205204606,1713350765.35394
0.000431359454523772,-0.00616570189595223,1713350765.40088
0.000457948306575418,-0.00611536111682653,1713350765.40198
0.000481892697280273,-0.00617221696302295,1713350765.45235
0.000446529040345922,-0.0061509171500802,1713350765.45334
0.0004009481635876,-0.00611798139289022,1713350765.48459
0.000437057082308456,-0.00614377716556191,1713350765.48581
0.00047689225175418,-0.00616952450945973,1713350765.50845
0.000439244759036228,-0.00614993134513497,1713350765.50958
0.000416574534028769,-0.00615286454558373,1713350765.53666
0.000367627973901108,-0.00617327494546771,1713350765.53775
0.000424483878305182,-0.00616293726488948,1713350765.58839
0.000423257792135701,-0.0061689717695117,1713350765.58913
0.000375465198885649,-0.00614921050146222,1713350765.63693
0.00029608333716169,-0.00619084853678942,1713350765.6381
0.000360896636266261,-0.00615370599552989,1713350765.66109
0.000478719332022592,-0.00615041237324476,1713350765.66235
0.000474704575026408,-0.00617149565368891,1713350765.74092
0.000419026677263901,-0.00616416335105896,1713350765.74206
0.000511101970914751,-0.00614594062790275,1713350765.76523
0.000111692359496374,-0.00617474131286144,1713350765.76626
0.000328489986713976,-0.00613447325304151,1713350765.78189
0.000273268844466656,-0.0061627933755517,1713350765.78329
0.000310675939545035,-0.00615998031571507,1713350765.82834
0.000521391280926764,-0.0061056730337441,1713350765.82948
0.000384552520699799,-0.00611540907993913,1713350765.86045
0.000420372933149338,-0.00608939724043012,1713350765.86207
0.000483936135424301,-0.00606475584208965,1713350765.91256
0.000524228089489043,-0.00607692031189799,1713350765.914
0.000485691096400842,-0.00608511827886105,1713350765.96456
0.000454823020845652,-0.00607110233977437,1713350765.96567
0.00053281057626009,-0.00605884194374085,1713350766.00075
0.000452827662229538,-0.00609634490683675,1713350766.00199
0.00043984578223899,-0.00609579216688871,1713350766.04083
0.000406549632316455,-0.00612276559695601,1713350766.04199
0.000396572810132056,-0.00613430514931679,1713350766.06973
0.000400010583689436,-0.00614007469266653,1713350766.0703
0.00033868316677399,-0.00615805713459849,1713350766.14446
0.000363781495252624,-0.00615178281441331,1713350766.14552
0.000335269403876737,-0.00615046033635736,1713350766.16868
0.00034159206552431,-0.00615175860002637,1713350766.16987
0.000320051738526672,-0.00618327595293522,1713350766.19619
0.000410684588132426,-0.00613562716171145,1713350766.19698
0.000437393639003858,-0.00611889502033591,1713350766.22061
0.000459486909676343,-0.00600604899227619,1713350766.22187
0.000472420710138977,-0.00621710065752268,1713350766.26904
0.000507736287545413,-0.0062035177834332,1713350766.27022
0.000539541884791106,-0.00620279647409916,1713350766.3165
0.000549398537259549,-0.00621176371350884,1713350766.31751
0.000545528018847108,-0.00623691035434604,1713350766.3458
0.000545503979083151,-0.00618421332910657,1713350766.34622
0.000555024016648531,-0.00620219577103853,1713350766.39636
0.000546994444448501,-0.00622835196554661,1713350766.39762
0.000533844286110252,-0.00626313826069236,1713350766.42845
0.000523939612321556,-0.00631148414686322,1713350766.42977
0.000504274445120245,-0.00610249955207109,1713350766.47634
0.000509322970174253,-0.00613322341814637,1713350766.47728
0.000492614752147347,-0.0062576811760664,1713350766.50048
0.000490979989990592,-0.00621188385412097,1713350766.52422
0.000490811711642891,-0.00622787093743682,1713350766.56081
0.000485498778289184,-0.0063362936489284,1713350766.56209
0.000482734089018777,-0.00623433804139495,1713350766.58023
0.000477757712360472,-0.00630645966157317,1713350766.58122
0.00046780492994003,-0.00629816530272365,1713350766.62092
0.000454173947218806,-0.0062492429278791,1713350766.62203
0.000438860122812912,-0.00622082687914372,1713350766.67641
0.000430950778536499,-0.00622294284403324,1713350766.67787
0.000438499497249723,-0.00620827777311206,1713350766.70061
0.000437946582678705,-0.00620960025116801,1713350766.70216
0.000449894723715261,-0.0061925551854074,1713350766.75263
0.000449654326075688,-0.00618673767894506,1713350766.75347
0.000460087903775275,-0.00618147291243076,1713350766.80502
0.000460520648630336,-0.00617113523185253,1713350766.8058
0.000472228392027319,-0.00616156728938222,1713350766.87647
0.000473478488856927,-0.00615510018542409,1713350766.87771
0.000467035628389567,-0.0061447867192328,1713350766.90102
0.000498095992952585,-0.00612726109102368,1713350766.90218
0.000485763215692714,-0.00611456762999296,1713350766.95244
0.000476748013170436,-0.00610961532220244,1713350766.9535
0.000485234311781824,-0.00610656244680285,1713350766.96102
0.000487566256197169,-0.00610894244164228,1713350766.96207
0.000499874993693084,-0.00612009735777974,1713350767.00443
0.000484272692119703,-0.00611567357555032,1713350767.00552
0.000439172639744356,-0.00610192259773612,1713350767.03244
0.000470425351522863,-0.00610358128324151,1713350767.03366
0.000451120780780911,-0.00612194836139679,1713350767.06052
0.000434965535532683,-0.00613127602264285,1713350767.08887
0.00043208067654632,-0.00613920949399471,1713350767.10845
0.00036717121838592,-0.00615642266348004,1713350767.10969
0.000389625085517764,-0.00613738223910332,1713350767.16483
0.000429748732130975,-0.0061539220623672,1713350767.16586
0.000416863011196256,-0.00614461861550808,1713350767.1845
0.000378662603907287,-0.00614493107423186,1713350767.18564
0.000414218549849466,-0.00617721769958735,1713350767.22089
0.000435951194958761,-0.00617188028991222,1713350767.22252
0.000431215215940028,-0.00617966987192631,1713350767.29694
0.000387701846193522,-0.00618721824139357,1713350767.29802
0.000360487931175157,-0.00619168998673558,1713350767.32849
0.000415372487623245,-0.00619558431208134,1713350767.32912
0.000413641595514491,-0.00617539044469595,1713350767.35272
0.000242280584643595,-0.0062297941185534,1713350767.35383
0.00036178613663651,-0.00621183589100838,1713350767.38881
0.00039265418308787,-0.00621224474161863,1713350767.39055
0.0002955544332508,-0.00624503567814827,1713350767.44444
0.000474993052193895,-0.00620604213327169,1713350767.44576
0.000192684950889088,-0.0062490263953805,1713350767.48889
0.000437946582678705,-0.00624474743381143,1713350767.49001
0.000350006273947656,-0.00622174050658941,1713350767.50845
0.000265143142314628,-0.0062414538115263,1713350767.50954
0.000466001889435574,-0.00624498771503568,1713350767.5327
0.000369959918316454,-0.00626575900241733,1713350767.53361
0.000290265510557219,-0.0062483293004334,1713350767.58017
0.000362988153938204,-0.00624467525631189,1713350767.58112
0.000408520951168612,-0.00625056540593505,1713350767.62846
0.000365776853868738,-0.00622041849419475,1713350767.65237
0.000378662603907287,-0.00622284645214677,1713350767.67676
0.000366353837307543,-0.0062283999286592,1713350767.67785
0.000400587567128241,-0.00622412050142884,1713350767.70088
0.000390346307540312,-0.00621428806334734,1713350767.70247
0.000385081424610689,-0.0062087825499475,1713350767.77271
0.000367892440408468,-0.00621758168563247,1713350767.7739
0.000348443631082773,-0.00621212460100651,1713350767.79269
0.000327432207996026,-0.00621464848518372,1713350767.79356
0.000342962390277535,-0.00620128214359283,1713350767.87644
0.000300891435472295,-0.00619902228936553,1713350767.87768
0.00038022521766834,-0.00620861444622278,1713350767.95735
0.000375609437469393,-0.00618531927466393,1713350767.95824
0.000408424792112783,-0.00616423552855849,1713350767.98894
0.000416983210016042,-0.0061518307775259,1713350767.99004
0.000396813207771629,-0.00596772832795978,1713350768.06874
0.000428546714829281,-0.00610663462430239,1713350768.06979
0.000488167250296101,-0.00622921716421843,1713350768.08819
0.000520573928952217,-0.00615769671276212,1713350768.08902
0.000524756964296103,-0.00605201441794634,1713350768.1163
0.000529949727933854,-0.00627583172172308,1713350768.11701
0.000543580739758909,-0.00617385189980269,1713350768.14462
0.000553773890715092,-0.00615185452625155,1713350768.14596
0.000536921492312104,-0.00613199733197689,1713350768.19266
0.000518843007739633,-0.00618957448750734,1713350768.19381
0.000515212886966765,-0.00614784006029367,1713350768.21262
0.000510885554831475,-0.00614589266479015,1713350768.21367
0.000513890641741455,-0.00621534558013082,1713350768.26047
0.000511342368554324,-0.00614757556468248,1713350768.2614
0.000486340170027688,-0.00616555800661445,1713350768.36506
0.000479031848954037,-0.00618705013766885,1713350768.36607
0.000474969012429938,-0.00624383380636573,1713350768.3803
0.000468934827949852,-0.00632309541106224,1713350768.3816
0.000448500359198079,-0.00619709910824895,1713350768.40481
0.000449149461928755,-0.00617087073624134,1713350768.4069
0.00044301911839284,-0.00616839481517673,1713350768.43286
0.000440663163317367,-0.00616659177467227,1713350768.4338
0.000437970622442663,-0.00614370498806238,1713350768.45715
0.000442850840045139,-0.00612793443724513,1713350768.45909
0.000457227084552869,-0.0061185103841126,1713350768.48447
0.000463165109977126,-0.00611403910443187,1713350768.48563
0.000464006530819461,-0.00611704401671886,1713350768.49279
0.000470545550342649,-0.00611240416765213,1713350768.49402
0.000475954671856016,-0.00610639387741685,1713350768.54488
0.000472420710138977,-0.00610079243779182,1713350768.54614
0.000494826468639076,-0.00608264189213514,1713350768.57256
0.000482133094919845,-0.00607365090399981,1713350768.57368
0.000487157551106066,-0.00606023613363504,1713350768.58906
0.000496869964990765,-0.00605013919994235,1713350768.59013
0.000493985076900572,-0.00605497136712074,1713350768.63689
0.00049497076543048,-0.00606035627424717,1713350768.63801
0.000485835334984586,-0.006064563523978,1713350768.68083
0.000474728614790365,-0.00605350499972701,1713350768.68201
0.000439965981058776,-0.00605362514033914,1713350768.70453
0.000476507615530863,-0.00605256715789437,1713350768.70526
0.000460063864011318,-0.00605278369039297,1713350768.77663
0.000448380160378292,-0.00605631759390235,1713350768.77781
0.000448500359198079,-0.00607730494812131,1713350768.77893
0.000440158299170435,-0.00607742508873344,1713350768.7797
0.000425349338911474,-0.00607788190245628,1713350768.8335
0.000443956698291004,-0.00608151219785214,1713350768.83416
0.000401813624193892,-0.00608603190630674,1713350768.86252
0.000397342082578689,-0.00608463725075126,1713350768.86302
0.000357699231244624,-0.00611413503065705,1713350768.90429
0.000430109357694164,-0.00611019227653742,1713350768.90517
0.000425806094426662,-0.00611113011837006,1713350768.93736
0.00032324914354831,-0.00613836804404855,1713350768.93907
0.000169029051903635,-0.00611512083560228,1713350768.9968
0.000325340661220253,-0.00616161525249481,1713350768.99792
0.000437297479948029,-0.00613440107554197,1713350769.02476
0.00043102289782837,-0.00614125281572342,1713350769.02601
0.000281634973362088,-0.00620705168694258,1713350769.06454
0.000509827805217356,-0.00618219375610352,1713350769.06563
0.000369719520676881,-0.00618930999189615,1713350769.11652
0.000302045373246074,-0.00622190907597542,1713350769.11763
0.000309906637994573,-0.00617630407214165,1713350769.18031
0.000475353648653254,-0.00618219375610352,1713350769.18109
0.000422344252001494,-0.00613432936370373,1713350769.20439
0.000223072202061303,-0.00616113422438502,1713350769.20556
0.000415636954130605,-0.00612697284668684,1713350769.22845
0.000387028703698888,-0.00610822113230825,1713350769.22957
0.000343996129231527,-0.00608432479202747,1713350769.26075
0.000297525752102956,-0.00612327037379146,1713350769.26199
0.000430421874625608,-0.00608865218237042,1713350769.30843
0.000425132951932028,-0.00607374683022499,1713350769.30906
0.000380994519218802,-0.00609898939728737,1713350769.33653
0.000355607713572681,-0.0061168996617198,1713350769.33794
0.000406357285100967,-0.00609550392255187,1713350769.39247
0.000376066222088411,-0.00610069651156664,1713350769.39325
0.000353299808921292,-0.0061131976544857,1713350769.41273
0.00033514920505695,-0.00610598549246788,1713350769.4141
0.00029872779850848,-0.00610718736425042,1713350769.47705
0.000320364284561947,-0.00610711518675089,1713350769.47888
0.000328658265061676,-0.00609797984361649,1713350769.50072
0.00032774472492747,-0.0061131976544857,1713350769.50178
0.000365680694812909,-0.00612197211012244,1713350769.55234
0.000400251010432839,-0.00611444748938084,1713350769.55299
0.000432633620221168,-0.00609059957787395,1713350769.60108
0.000439677503891289,-0.00612091459333897,1713350769.60294
0.000493360043037683,-0.00614334456622601,1713350769.61621
0.000513602164573967,-0.00611824588850141,1713350769.61722
0.000503889750689268,-0.00609629694372416,1713350769.66896
0.000511294289026409,-0.006093580275774,1713350769.6699
0.000485570897581056,-0.00607518944889307,1713350769.70081
0.000480955088278279,-0.00611425517126918,1713350769.70209
0.00047362272744067,-0.00613288674503565,1713350769.74465
0.000483118754345924,-0.00614793598651886,1713350769.74564
0.000483743817312643,-0.00598748959600925,1713350769.79685
0.000490763632114977,-0.00606581382453442,1713350769.79803
0.000485402590129525,-0.00607309769839048,1713350769.84054
0.000486796954646707,-0.00612514559179544,1713350769.86034
0.000482229253975675,-0.00607910798862577,1713350769.88462
0.000483888055896387,-0.00607434799894691,1713350769.88579
0.000487061392050236,-0.00613209325820208,1713350769.90839
0.000481748429592699,-0.00613466557115316,1713350769.90943
0.000477901950944215,-0.00615272019058466,1713350769.95635
0.000467877049231902,-0.00616776943206787,1713350769.9572
0.000462083262391388,-0.00613279035314918,1713350769.98049
0.000457179005024955,-0.00613240571692586,1713350769.98122
0.000461530347820371,-0.00610745185986161,1713350770.02466
0.000465376826468855,-0.00608475739136338,1713350770.02586
0.00046912714606151,-0.00607377104461193,1713350770.06456
0.000466098048491403,-0.00607172772288322,1713350770.06549
0.000472276471555233,-0.00605155760422349,1713350770.11642
0.000480113696539775,-0.00605045165866613,1713350770.11764
0.000488455756567419,-0.00604095589369535,1713350770.14441
0.000491725280880928,-0.0060412441380322,1713350770.14565
0.000487614335725084,-0.00603004125878215,1713350770.19653
0.000475954671856016,-0.00602494459599257,1713350770.19756
0.000493287923745811,-0.00600119261071086,1713350770.24025
0.000469511811388657,-0.00599224958568811,1713350770.24096
0.000525886891409755,-0.00597039656713605,1713350770.26465
0.000509106554090977,-0.00596405006945133,1713350770.26623
0.000510957674123347,-0.00595602067187429,1713350770.30084
0.000519780558533967,-0.0059491447173059,1713350770.30221
0.000524877163115889,-0.00594782270491123,1713350770.34041
0.000525430077686906,-0.00595068326219916,1713350770.34152
0.000500740483403206,-0.00595626095309854,1713350770.41625
0.000509202713146806,-0.00596066052094102,1713350770.42449
0.000502711802255362,-0.00596700701862574,1713350770.43243
0.000490715552587062,-0.00596450688317418,1713350770.43345
0.000466074008727446,-0.00596587732434273,1713350770.45674
0.00047742115566507,-0.00596755975857377,1713350770.45806
0.000476531655294821,-0.00597893120720983,1713350770.50504
0.000469439692096785,-0.00597924366593361,1713350770.50623
0.000453212327556685,-0.00599150452762842,1713350770.55625
0.000389168300898746,-0.00599936535581946,1713350770.55718
0.000429917039582506,-0.00599597580730915,1713350770.5804
0.000500548165291548,-0.00599660072475672,1713350770.58185
0.000460352370282635,-0.00601047230884433,1713350770.62116
0.000429484294727445,-0.00601263577118516,1713350770.62213
0.000444197125034407,-0.00602982472628355,1713350770.66443
0.000400395249016583,-0.00604251818731427,1713350770.66521
0.000391235807910562,-0.00606102962046862,1713350770.70878
0.000447586819063872,-0.00604105181992054,1713350770.70977
0.0002734130830504,-0.00612024124711752,1713350770.74034
0.000422488490585238,-0.0061006722971797,1713350770.74124
0.000345126027241349,-0.00610389374196529,1713350770.79644
0.000342529645422474,-0.00610146578401327,1713350770.79769
0.000370320514775813,-0.00610483158379793,1713350770.8527
0.000405275466619059,-0.0061454838141799,1713350770.85389
0.000348058994859457,-0.00612966530025005,1713350770.88084
0.000353804673068225,-0.00615716772153974,1713350770.88209
0.000342553685186431,-0.00617322698235512,1713350770.95233
0.000336928205797449,-0.00608985405415297,1713350770.95349
0.000452707463409752,-0.00608757045120001,1713350770.97639
0.000380273297196254,-0.00612408807501197,1713350771.00463
0.000443740340415388,-0.00606985250487924,1713350771.05284
0.000529829529114068,-0.006021314766258,1713350771.05412
0.000473382329801098,-0.00604696571826935,1713350771.0766
0.00035570387262851,-0.00605557253584266,1713350771.07787
0.00052795436931774,-0.00599845219403505,1713350771.0925
0.000528867880348116,-0.00603468110784888,1713350771.09361
0.000452130479970947,-0.00603516213595867,1713350771.10431
0.000433018256444484,-0.00604682182893157,1713350771.10557
0.000448740785941482,-0.00603424850851297,1713350771.15682
0.000427897612098604,-0.00604319153353572,1713350771.1578
0.000388639426091686,-0.00606088526546955,1713350771.18079
0.000408953666919842,-0.00602677185088396,1713350771.18204
0.000384360202588141,-0.00606511626392603,1713350771.22952
0.000384240003768355,-0.00605828873813152,1713350771.23092
0.000382701400667429,-0.00607206439599395,1713350771.28447
0.000420685450080782,-0.00607148697599769,1713350771.28544
0.000443980738054961,-0.00606898684054613,1713350771.37269
0.00045042359852232,-0.00598811451345682,1713350771.37406
0.000451385247288272,-0.00601241970434785,1713350771.39303
0.000482469651615247,-0.00613127602264285,1713350771.39362
0.000525790732353926,-0.00605641398578882,1713350771.41672
0.000540840090252459,-0.00604720646515489,1713350771.4179
0.000542787369340658,-0.00606030831113458,1713350771.44463
0.000546705967281014,-0.00606163078919053,1713350771.44609
0.00054798013297841,-0.00603759009391069,1713350771.46845
0.000543220085091889,-0.00604165298864245,1713350771.46978
0.000529084296431392,-0.00604040268808603,1713350771.52028
0.000497855595313013,-0.00607283366844058,1713350771.52161
0.000496389111503959,-0.00604316731914878,1713350771.61272
0.000504466763231903,-0.00598462857306004,1713350771.61401
0.000510068202856928,-0.00607934826985002,1713350771.62463
0.000502807961311191,-0.00599217740818858,1713350771.62571
0.00047953671310097,-0.00614497903734446,1713350771.63253
0.000474512227810919,-0.00611461605876684,1713350771.63323
0.000469944527139887,-0.00610459083691239,1713350771.65631
0.000467444304376841,-0.00616469234228134,1713350771.65726
0.000463718024548143,-0.00611271662637591,1713350771.70441
0.000455111527116969,-0.00608898885548115,1713350771.70549
0.000447658938355744,-0.0060819205828011,1713350771.74585
0.000444100936874747,-0.00606980454176664,1713350771.74619
0.000432922097388655,-0.0060482881963253,1713350771.8008
0.000437441718531773,-0.00603722920641303,1713350771.80199
0.000437393639003858,-0.00603600358590484,1713350771.82095
0.000446937745437026,-0.00602540140971541,1713350771.82255
0.000451817963039503,-0.00600943854078651,1713350771.86463
0.000461289950180799,-0.00600258680060506,1713350771.86546
0.000446336722234264,-0.00599575927481055,1713350771.9084
0.00047468050615862,-0.00599777884781361,1713350771.90929
0.00046294872299768,-0.00598763395100832,1713350771.95651
0.000471122533781454,-0.005981070920825,1713350771.95777
0.000450375518994406,-0.00597518077120185,1713350771.99255
0.000506726559251547,-0.00595508283004165,1713350771.99335
0.000473334250273183,-0.00595166906714439,1713350772.01688
0.000452154519734904,-0.00595669355243444,1713350772.01807
0.000425830134190619,-0.00597433932125568,1713350772.06025
0.000481556111481041,-0.00598578248172998,1713350772.06128
0.000445976125774905,-0.0059895571321249,1713350772.16451
0.000444365403382108,-0.00598804233595729,1713350772.16585
0.000414122390793636,-0.00598924467340112,1713350772.18882
0.000430157437222078,-0.00600520754233003,1713350772.18995
0.000402198289521039,-0.0060126599855721,1713350772.21645
0.000435638678027317,-0.00603143544867635,1713350772.21761
0.000458933966001496,-0.00604965817183256,1713350772.24493
0.00040412152884528,-0.00605105282738805,1713350772.24602
0.00036099279532209,-0.00607122294604778,1713350772.26464
0.000385177583666518,-0.0060963211581111,1713350772.26582
0.000389552966225892,-0.00610052794218063,1713350772.32106
0.000403256068238989,-0.00610463926568627,1713350772.32213
0.000241799774812534,-0.00615591742098331,1713350772.34046
0.000436552218161523,-0.00612699659541249,1713350772.34141
0.000334596290485933,-0.00613738223910332,1713350772.38875
0.000224274219362997,-0.00616000453010201,1713350772.3898
0.000210498998058029,-0.00615760032087565,1713350772.4447
0.000364935433026403,-0.00616716872900724,1713350772.44577
0.000363324739737436,-0.00617274595424533,1713350772.48133
0.000355006690369919,-0.00617572711780667,1713350772.48188
0.000380874320399016,-0.00619241129606962,1713350772.52437
0.0003766912559513,-0.00618188129737973,1713350772.52517
0.00019201182294637,-0.00619967142120004,1713350772.56912
0.000552283367142081,-0.00614036340266466,1713350772.57
0.000272379344096407,-0.00619796430692077,1713350772.59268
0.000373205402866006,-0.00616550957784057,1713350772.59366
0.000481940776808187,-0.00612762197852135,1713350772.64082
0.000356929929694161,-0.00615632627159357,1713350772.64188
0.000360752397682518,-0.00612401589751244,1713350772.67689
0.000308776739984751,-0.00612709298729897,1713350772.67797
0.000453813321655616,-0.00609249854460359,1713350772.71311
0.000343683612300083,-0.00612319819629192,1713350772.71426
0.000404650432756171,-0.00609884550794959,1713350772.74449
0.000307574693579227,-0.0060828342102468,1713350772.7461
0.000391716603189707,-0.0060917055234313,1713350772.81648
0.00036584897316061,-0.00610418245196343,1713350772.81744
0.000400852004531771,-0.00611427938565612,1713350772.83287
0.000327095622196794,-0.0061118514277041,1713350772.83405
0.000312190502882004,-0.00613182876259089,1713350772.86047
0.000325484899803996,-0.00614930642768741,1713350772.86179
0.000330990209477022,-0.00616793800145388,1713350772.90045
0.000328297668602318,-0.00616938015446067,1713350772.90117
0.000349741807440296,-0.00617945333942771,1713350772.95682
0.000356617412762716,-0.00616096612066031,1713350772.95794
0.00037625854020007,-0.00614394526928663,1713350772.98066
0.000398447969928384,-0.00615579728037119,1713350772.98183
0.000441937299910933,-0.00607639132067561,1713350773.03235
0.0004534286854323,-0.00613298313692212,1713350773.03335
0.000479200156405568,-0.00617224117740989,1713350773.07267
0.000477565394248813,-0.00608533434569836,1713350773.07393
0.000494105275720358,-0.00610206695273519,1713350773.10557
0.000500692403875291,-0.00610331678763032,1713350773.10627
0.000491557002533227,-0.00610471144318581,1713350773.14433
0.000472949614049867,-0.00611622678115964,1713350773.16413
0.000464270968222991,-0.00612283777445555,1713350773.18879
0.000460929324617609,-0.00608711363747716,1713350773.18998
0.000465208548121154,-0.00610687490552664,1713350773.24058
0.000458477181382477,-0.00614697439596057,1713350773.24172
0.000461289950180799,-0.00611209170892835,1713350773.25665
0.000460015784483403,-0.0060515096411109,1713350773.25777
0.000464295007986948,-0.00616272119805217,1713350773.29685
0.000461842864751816,-0.00610800459980965,1713350773.29815
0.000459414761280641,-0.00615649437531829,1713350773.34478
0.000461169722257182,-0.00616096612066031,1713350773.34628
0.000464535405626521,-0.00613908935338259,1713350773.40893
0.000462155410787091,-0.00618356419727206,1713350773.4101
0.000453116139397025,-0.00619719503447413,1713350773.45678
0.000448284001322463,-0.00620753271505237,1713350773.45795
0.000446216523414478,-0.00614918628707528,1713350773.46504
0.000447178143076599,-0.00612500123679638,1713350773.46621
0.000444725999841467,-0.00612132344394922,1713350773.53255
0.000441624782979488,-0.00611723633483052,1713350773.5337
0.000447226222604513,-0.00611235620453954,1713350773.57273
0.000451216939836741,-0.00610204273834825,1713350773.57399
0.000443644181359559,-0.00609057536348701,1713350773.61347
0.000435758876847103,-0.00608216132968664,1713350773.61465
0.000433475041063502,-0.00607408350333571,1713350773.66049
0.000443115277448669,-0.00605489918962121,1713350773.66211
0.000398784526623785,-0.0060528558678925,1713350773.69674
0.000423666497226805,-0.00605367310345173,1713350773.69806
0.000443884578999132,-0.00603511370718479,1713350773.72543
0.000432585540693253,-0.00602946430444717,1713350773.74849
0.000368613633327186,-0.00603251764550805,1713350773.80424
0.000505909207277,-0.0060259304009378,1713350773.80518
0.000438307179138064,-0.00603405619040132,1713350773.8166
0.000418377574533224,-0.00603869603946805,1713350773.81778
0.00038366302032955,-0.00605802470818162,1713350773.82455
0.000395539042074233,-0.00606078933924437,1713350773.8256
0.000425397418439388,-0.0060738674364984,1713350773.87239
0.000312118354486302,-0.00607994943857193,1713350773.87357
0.000283197587123141,-0.00608769059181213,1713350773.89658
0.000336519529810175,-0.00609221030026674,1713350773.89772
0.000411550048738718,-0.00610519200563431,1713350773.97229
0.000194584150449373,-0.00613324716687202,1713350773.97347
0.00024223250511568,-0.00610432680696249,1713350773.99659
0.000346808868926018,-0.00613889703527093,1713350773.99791
0.000412463588872924,-0.00614384934306145,1713350774.02056
0.000304689834592864,-0.00614882539957762,1713350774.02238
0.000151239059050567,-0.00616041338071227,1713350774.06841
0.000403448386350647,-0.00615567713975906,1713350774.06946
0.000204921583645046,-0.00615716772153974,1713350774.11279
0.000400178891140968,-0.00615163845941424,1713350774.11358
0.000463285308796912,-0.00615332135930657,1713350774.16918
0.000240333305555396,-0.00619861343875527,1713350774.17037
0.000405035068979487,-0.00616216799244285,1713350774.18446
0.000305891880998388,-0.00618755491450429,1713350774.18584
0.000202397335669957,-0.00619072839617729,1713350774.21645
0.000442153657786548,-0.00614245468750596,1713350774.2174
0.000331735442159697,-0.00619058404117823,1713350774.26485
0.000105201412225142,-0.00622224528342485,1713350774.28475
0.000470593629870564,-0.00616233656182885,1713350774.31649
0.000256416416959837,-0.00618793955072761,1713350774.31746
0.0002529546036385,-0.00617712130770087,1713350774.34048
0.000366522115655243,-0.0061500514857471,1713350774.34126
0.000312959775328636,-0.00617195246741176,1713350774.38837
0.000315628276439384,-0.00617543840780854,1713350774.38905
0.000309594121063128,-0.00616990914568305,1713350774.41685
0.000302309839753434,-0.00617017364129424,1713350774.41818
0.000342866231221706,-0.00616563018411398,1713350774.46444
0.000300915475236252,-0.00615247990936041,1713350774.46551
0.000330244947690517,-0.00614586845040321,1713350774.52058
0.000348179193679243,-0.00615704758092761,1713350774.52167
0.000357579032424837,-0.00613502645865083,1713350774.56852
0.000359069555997848,-0.00608949363231659,1713350774.5697
0.000368517474271357,-0.00608355551958084,1713350774.59286
0.000431864318670705,-0.0061136782169342,1713350774.59422
0.000516342755872756,-0.00611052894964814,1713350774.62042
0.000470737868454307,-0.00609656143933535,1713350774.62167
0.000488095131004229,-0.00609160913154483,1713350774.67627
0.000426767714088783,-0.00612317444756627,1713350774.67716
0.000374167022528127,-0.00613880064338446,1713350774.69725
0.000408064166549593,-0.00613163644447923,1713350774.69785
0.000414026231737807,-0.00613038660958409,1713350774.75296
0.00041638221591711,-0.00614014687016606,1713350774.75418
0.00040174150490202,-0.00614872947335243,1713350774.78065
0.000330341106746346,-0.00614132499322295,1713350774.78181
0.000435109774116427,-0.00613829586654902,1713350774.82844
0.000432994216680527,-0.0061232466250658,1713350774.85266
0.000423498189775273,-0.0061493543908,1713350774.87682
0.000386884465115145,-0.00614918628707528,1713350774.87806
0.000438331218902022,-0.00614182977005839,1713350774.9047
0.000459078204585239,-0.00612754980102181,1713350774.90591
0.000459847506135702,-0.00613993080332875,1713350774.93644
0.000471266772365198,-0.00610617781057954,1713350774.93758
0.000460448529338464,-0.00616288930177689,1713350775.00857
0.000471963925519958,-0.00622630817815661,1713350775.00964
0.000473045773105696,-0.00620082532986999,1713350775.03642
0.000491412763949484,-0.00618356419727206,1713350775.03784
0.000493720639497042,-0.00615909090265632,1713350775.06464
0.000495090964250267,-0.00612954515963793,1713350775.06589
0.00050035584717989,-0.00611610664054751,1713350775.10844
0.000505452393554151,-0.00611714040860534,1713350775.10922
0.000503673392813653,-0.00615630205720663,1713350775.1364
0.000514010840561241,-0.00611622678115964,1713350775.1377
0.00051869876915589,-0.00615223916247487,1713350775.20854
0.000521992333233357,-0.00617204885929823,1713350775.2097
0.000504274445120245,-0.00607244903221726,1713350775.26042
0.000495908316224813,-0.00595118850469589,1713350775.2615
0.000477373047033325,-0.00613218965008855,1713350775.2887
0.000467853009467945,-0.00614012312144041,1713350775.28976
0.000450135121354833,-0.0061943824402988,1713350775.30851
0.000467131787445396,-0.0061131976544857,1713350775.30927
0.000446817517513409,-0.00609653722494841,1713350775.33645
0.00037414298276417,-0.00608903681859374,1713350775.33751
0.000439100520452485,-0.00605922657996416,1713350775.40087
0.000434124114690349,-0.00605049962177873,1713350775.40204
0.000426935992436484,-0.00602857489138842,1713350775.41265
0.000439773662947118,-0.00600674608722329,1713350775.41387
0.000412752095144242,-0.0060016973875463,1713350775.46035
0.000437321519711986,-0.00599227380007505,1713350775.4613
0.000448644597781822,-0.0059891240671277,1713350775.52069
0.00043773019569926,-0.00599263422191143,1713350775.52194
0.000365392217645422,-0.00602056924253702,1713350775.56051
0.000463357428088784,-0.0059989090077579,1713350775.56161
0.000435855035902932,-0.00600689044222236,1713350775.59644
0.000282596593024209,-0.00603477749973536,1713350775.59752
0.000394553382648155,-0.00602352619171143,1713350775.61689
0.000375970063032582,-0.0060426383279264,1713350775.61804
0.000286010326817632,-0.00608617579564452,1713350775.67698
0.000303415697999299,-0.00609567202627659,1713350775.67852
0.000339163991156965,-0.0060883155092597,1713350775.70075
0.000301684776786715,-0.00611019227653742,1713350775.70191
0.000203599352971651,-0.00613906513899565,1713350775.75242
0.000273605430265889,-0.00613807933405042,1713350775.75351
0.000263869005721062,-0.00612266967073083,1713350775.78081
0.000329547765431926,-0.00613271864131093,1713350775.78208
0.000385586259653792,-0.00616096612066031,1713350775.81291
0.000286226713797078,-0.00613800715655088,1713350775.81389
0.000250406301347539,-0.00617916462942958,1713350775.85264
0.000167177931871265,-0.00613798340782523,1713350775.85403
0.000384071725420654,-0.00613192515447736,1713350775.92851
0.00022785626060795,-0.00615404220297933,1713350775.92963
0.000104552324046381,-0.0061360839754343,1713350775.9805
0.000281610933598131,-0.00617154408246279,1713350775.98157
0.000163716103998013,-0.00616548582911491,1713350776.00043
0.000313753116643056,-0.00611067330464721,1713350776.00139
0.000260190805420279,-0.00613574776798487,1713350776.02443
0.000176697983988561,-0.006140002515167,1713350776.02536
0.000183765907422639,-0.00612827111035585,1713350776.07299
0.000274783407803625,-0.00616791378706694,1713350776.07361
0.000183092779479921,-0.00614144513383508,1713350776.12044
0.000196387190953828,-0.00615298468619585,1713350776.12163
0.000234731865930371,-0.00614240672439337,1713350776.15222
0.000180496397661045,-0.00612711720168591,1713350776.15342
0.000178765476448461,-0.00613026646897197,1713350776.18075
0.00019059341866523,-0.00613480992615223,1713350776.18183
0.000177515365066938,-0.0061440896242857,1713350776.23296
0.000179703056346625,-0.00613074703142047,1713350776.23394
0.000199055692064576,-0.00613009789958596,1713350776.25287
0.000182251358637586,-0.00612829485908151,1713350776.25394
0.000250478420639411,-0.00608050217851996,1713350776.30041
0.000223000082769431,-0.00608098320662975,1713350776.30125
0.000286154594505206,-0.00603227689862251,1713350776.35665
0.000296371814329177,-0.00605920236557722,1713350776.35763
0.000293462915578857,-0.00609418144449592,1713350776.40453
0.000256007740972564,-0.00612726109102368,1713350776.40541
0.000234852064750157,-0.00612641964107752,1713350776.43637
0.000324282882502303,-0.0061589227989316,1713350776.43773
0.000280288688372821,-0.00611274084076285,1713350776.48078
0.000225332012632862,-0.00610548071563244,1713350776.48173
0.000290073192445561,-0.00610197056084871,1713350776.53249
0.000335125165292993,-0.00607381900772452,1713350776.53388
0.000293246528599411,-0.00608555087819696,1713350776.56453
0.000277379789622501,-0.00607879552990198,1713350776.56522
0.000247857999056578,-0.00607576640322804,1713350776.58885
0.000296588172204792,-0.00607071770355105,1713350776.58981
0.000293535034870729,-0.00603564269840717,1713350776.6247
0.000272114906692877,-0.00609721057116985,1713350776.62681
0.000278461608104408,-0.00599198509007692,1713350776.66877
0.000288895214907825,-0.00615375395864248,1713350776.67007
0.000293150369543582,-0.00610836548730731,1713350776.71285
0.000302309839753434,-0.00611954415217042,1713350776.71414
0.000310892297420651,-0.00611509662121534,1713350776.74031
0.000315532117383555,-0.00610490376129746,1713350776.74141
0.000316469697281718,-0.00611586589366198,1713350776.817
0.000339019723469391,-0.00610353332012892,1713350776.81827
0.00035438165650703,-0.00612093880772591,1713350776.83639
0.000363973813364282,-0.00614851294085383,1713350776.83797
0.000377508637029678,-0.00612266967073083,1713350776.85648
0.000380585843231529,-0.00612245313823223,1713350776.85768
0.000375489238649607,-0.00614057993516326,1713350776.9244
0.000373710237909108,-0.00616478873416781,1713350776.92539
0.000363757455488667,-0.00604566745460033,1713350776.94876
0.000357074197381735,-0.00607966119423509,1713350776.94996
0.000353924871888012,-0.006081223487854,1713350776.9685
0.000355319236405194,-0.00613923324272037,1713350776.9697
0.000361209153197706,-0.006109110545367,1713350777.01672
0.000359021476469934,-0.00608595972880721,1713350777.02869
0.00035676165134646,-0.00608276203274727,1713350777.06956
0.000349309091689065,-0.00608629640191793,1713350777.07001
0.000398183503421023,-0.00605881772935391,1713350777.09273
0.000368397275451571,-0.00604961020871997,1713350777.09452
0.000354573974618688,-0.00602881517261267,1713350777.14418
0.000219225708860904,-0.00602217996492982,1713350777.14568
0.000382677360903472,-0.00597890699282289,1713350777.18848
0.000384840997867286,-0.00597169483080506,1713350777.18942
0.000351929513271898,-0.00596431456506252,1713350777.22487
0.000382989877834916,-0.00595546746626496,1713350777.22607
0.000334115466102958,-0.00595489051192999,1713350777.30484
0.000415925431298092,-0.00594553863629699,1713350777.30588
0.00037722015986219,-0.00596707919612527,1713350777.32857
0.000374527618987486,-0.00596736744046211,1713350777.33049
0.000376547017367557,-0.00598126323893666,1713350777.35256
0.00034555877209641,-0.00600116839632392,1713350777.35345
0.000292885932140052,-0.00600388506427407,1713350777.39668
0.000362290971679613,-0.006002611014992,1713350777.39789
0.000295626552542672,-0.0060083088465035,1713350777.4483
0.000285577611066401,-0.00601350143551827,1713350777.44935
0.0003319758689031,-0.00599330756813288,1713350777.57674
0.000358156015863642,-0.00600506318733096,1713350777.57791
0.000178356785909273,-0.00604129210114479,1713350777.60046
0.00012568396050483,-0.00606980454176664,1713350777.60212
0.000359069555997848,-0.00601020781323314,1713350777.60881
0.000253363279625773,-0.00605247123166919,1713350777.61007
1.20443119158153E-05,-0.00610271608456969,1713350777.63651
0.000208311306778342,-0.00607490073889494,1713350777.6608
4.57010719401296E-05,-0.00607540598139167,1713350777.69287
0.000216557207750157,-0.00612901616841555,1713350777.69379
0.000208527664653957,-0.00615550903603435,1713350777.77711
0.000119914227980189,-0.00611199531704187,1713350777.77826
0.000366570195183158,-0.00613072328269482,1713350777.81649
2.94256242341362E-05,-0.00616202410310507,1713350777.81768
0.000255142280366272,-0.00609862897545099,1713350777.94052
0.000330220907926559,-0.00606980454176664,1713350777.9416
0.000262354442384094,-0.00604855269193649,1713350777.96059
-2.81274355984351E-06,-0.00611435156315565,1713350777.96211
0.00025983017985709,-0.0060885320417583,1713350777.98827
0.000170880171936005,-0.00610343692824245,1713350777.98929
0.000261993845924735,-0.00604905746877193,1713350778.00858
0.000140228483360261,-0.00606966018676758,1713350778.00967
0.00036267563700676,-0.00603636400774121,1713350778.01619
0.000362747756298631,-0.00602124258875847,1713350778.01735
0.000294929370284081,-0.00603968137875199,1713350778.04488
0.000278052932117134,-0.00603222893550992,1713350778.04611
0.000245429895585403,-0.00603689299896359,1713350778.13654
0.000285553571302444,-0.0060165305621922,1713350778.13819
0.000235861763940193,-0.00599434087052941,1713350778.16071
0.000242929687374271,-0.00600386131554842,1713350778.16183
0.000241270885453559,-0.00599626451730728,1713350778.16279
0.000217182270716876,-0.00602321373298764,1713350778.16389
0.000275552709354088,-0.00600369274616241,1713350778.17657
0.000292549375444651,-0.00597484409809113,1713350778.17776
0.000324763706885278,-0.00594693329185247,1713350778.18482
0.000377893302356824,-0.00607086205855012,1713350778.23683
0.000406020728405565,-0.00605350499972701,1713350778.24471
0.000386860425351188,-0.00606163078919053,1713350778.2464
0.000392317626392469,-0.00604910543188453,1713350778.28094
0.000390105880796909,-0.00607057381421328,1713350778.28224
0.000370056077372283,-0.00604696571826935,1713350778.30072
0.000359285913873464,-0.00603078678250313,1713350778.30213
0.000367772212484851,-0.00601799692958593,1713350778.33252
0.000367051019566134,-0.00605196645483375,1713350778.33363
0.000385994964744896,-0.00603888835757971,1713350778.35229
0.000386547879315913,-0.00604809587821364,1713350778.35313
0.000391187728382647,-0.00605230266228318,1713350778.37235
0.000378181779524311,-0.00605042790994048,1713350778.37304
0.000377292279154062,-0.00604321574792266,1713350778.4204
0.000371738919056952,-0.00604117196053267,1713350778.42184
0.000359790778020397,-0.0060482881963253,1713350778.46872
0.000360367732355371,-0.00603287806734443,1713350778.47021
0.000354309508111328,-0.00603326270356774,1713350778.49644
0.000347289693308994,-0.00603470532223582,1713350778.49734
0.00034661655081436,-0.00603468110784888,1713350778.55246
0.000335630029439926,-0.00603333488106728,1713350778.55314
0.000335798307787627,-0.00602847849950194,1713350778.57688
0.000326326320646331,-0.00602446403354406,1713350778.57787
0.000329740083543584,-0.00601410260424018,1713350778.64897
0.000325484899803996,-0.00599965406581759,1713350778.65005
0.00033762538805604,-0.00598881160840392,1713350778.70439
0.000326061883242801,-0.00599013408645988,1713350778.70564
0.000328249559970573,-0.00598097452893853,1713350778.78093
0.000312358781229705,-0.00597717612981796,1713350778.7816
0.000340678525390103,-0.00596239138394594,1713350778.78826
0.000330797862261534,-0.00594263011589646,1713350778.78929
0.000323080865200609,-0.00593811040744185,1713350778.80852
0.000337673467583954,-0.00593034503981471,1713350778.80977
0.000335605989675969,-0.00591681012883782,1713350778.87283
0.00033276918111369,-0.0059237340465188,1713350778.87394
0.000343322986736894,-0.00591563247144222,1713350778.89664
0.00030675734160468,-0.00593719677999616,1713350778.89786
0.00035120829124935,-0.00593686010688543,1713350778.92839
0.000340486207278445,-0.00594832748174667,1713350778.92924
0.000322263484122232,-0.00596724729984999,1713350778.95236
0.00037378235720098,-0.00597753655165434,1713350778.95358
0.000318993959808722,-0.00595373660326004,1713350778.97653
0.000287861446850002,-0.00595837645232677,1713350778.97782
0.000275047845207155,-0.00595582835376263,1713350779.02462
0.000239996734308079,-0.00595921790227294,1713350779.02581
0.00024978123838082,-0.00595659762620926,1713350779.0528
0.00024312200548593,-0.0059925620444119,1713350779.05397
0.000220355621422641,-0.00599698536098003,1713350779.09695
0.000125419508549385,-0.00600390927866101,1713350779.09805
0.000237929256400093,-0.00600068783387542,1713350779.12865
0.000194776483112946,-0.00604384066537023,1713350779.12984
8.02713693701662E-05,-0.0060604284517467,1713350779.18481
-8.96952624316327E-05,-0.00608427682891488,1713350779.18607
0.000160278301336803,-0.00605864962562919,1713350779.22464
0.000122967379866168,-0.00607699248939753,1713350779.22595
-6.66884661768563E-05,-0.00611401489004493,1713350779.29235
0.000182491756277159,-0.00610348535701633,1713350779.29354
0.000123063538921997,-0.00610564881935716,1713350779.32051
-1.36550279421499E-05,-0.00615524454042316,1713350779.32192
5.04370582348201E-05,-0.00611908733844757,1713350779.34448
0.000174029497429729,-0.00611288519576192,1713350779.34538
4.11093278671615E-05,-0.00615983596071601,1713350779.4204
0.000158475260832347,-0.00609348434954882,1713350779.42183
0.000145878017065115,-0.00610711518675089,1713350779.44457
0.000123279911349528,-0.00609846087172627,1713350779.44601
0.000142416174639948,-0.00609930232167244,1713350779.47327
2.62282319454243E-05,-0.00608348334208131,1713350779.47446
0.000155782719957642,-0.00615596584975719,1713350779.48829
0.000176890316652134,-0.00612016906961799,1713350779.48923
9.00799132068642E-05,-0.00611317344009876,1713350779.5446
9.77488452917896E-05,-0.00610990403220058,1713350779.54615
0.000150349558680318,-0.00609802780672908,1713350779.58859
0.000113303081889171,-0.00611980864778161,1713350779.58974
5.9476304159034E-05,-0.00613827165216208,1713350779.6368
7.06070713931695E-05,-0.00616462016478181,1713350779.63779
0.000144724064739421,-0.00609569624066353,1713350779.65255
9.45995343499817E-05,-0.00614911410957575,1713350779.65357
8.81807136465795E-05,-0.00611978443339467,1713350779.70428
9.14983029360883E-05,-0.00613723788410425,1713350779.70547
5.19035311299376E-05,-0.00614154152572155,1713350779.74832
8.43582674860954E-05,-0.00614353688433766,1713350779.74918
6.17120749666355E-05,-0.00617164000868797,1713350779.78877
8.19542110548355E-05,-0.00610550446435809,1713350779.78996
0.000120443117339164,-0.00609266711398959,1713350779.84095
0.0001153224875452,-0.00613132398575544,1713350779.84187
9.75805669440888E-05,-0.00611223606392741,1713350779.86907
8.90221272129566E-05,-0.00614719092845917,1713350779.87026
6.07985348324291E-05,-0.0061294250190258,1713350779.93245
-4.89465455757454E-05,-0.0061518307775259,1713350779.93345
8.18099651951343E-05,-0.00612531416118145,1713350779.95647
7.94780353317037E-05,-0.00611418299376965,1713350779.95768
6.07264119025785E-05,-0.00609733071178198,1713350779.96861
5.46441551705357E-05,-0.00605703890323639,1713350779.97001
3.82485050067771E-05,-0.00606319308280945,1713350780.03667
2.47136777034029E-05,-0.00612935284152627,1713350780.03767
1.73572716448689E-05,-0.00599708175286651,1713350780.05624
2.55310569627909E-05,-0.00610531214624643,1713350780.05776
3.00266383419512E-05,-0.00608273828402162,1713350780.09676
3.01468407997163E-05,-0.00611026445403695,1713350780.09851
4.16382208641153E-05,-0.00612617935985327,1713350780.13696
5.6735680118436E-05,-0.00612384732812643,1713350780.13824
7.16167778591625E-05,-0.00612615561112762,1713350780.1805
9.98163377516903E-05,-0.00613639643415809,1713350780.18151
0.000110682660306338,-0.0061468300409615,1713350780.22042
0.0001336173445452,-0.00618195347487927,1713350780.22156
0.00014720024773851,-0.00617269799113274,1713350780.26842
0.000159869610797614,-0.00615598959848285,1713350780.26954
0.000146959835547023,-0.00615459540858865,1713350780.29628
0.000146695398143493,-0.00614045932888985,1713350780.29724
0.000138545641675591,-0.00617180857807398,1713350780.35668
0.000139290903462097,-0.00615050829946995,1713350780.38818
0.00013260763080325,-0.00614298367872834,1713350780.40097
0.000130468033603393,-0.0061269486322999,1713350780.4021
0.000139363022753969,-0.00610992824658752,1713350780.43655
0.000160206182044931,-0.00608927709981799,1713350780.43791
0.000151960266521201,-0.00607891567051411,1713350780.46078
0.000156359688844532,-0.00605809642001987,1713350780.46226
0.000172659172676504,-0.00604612426832318,1713350780.5088
0.000201676113647409,-0.00602434389293194,1713350780.50991
0.000194992840988562,-0.00600585667416453,1713350780.54121
0.000196074674022384,-0.00600176956504583,1713350780.54262
0.000209585457923822,-0.00600092811509967,1713350780.58441
0.000222206741455011,-0.00599614391103387,1713350780.58531
0.000198238310986199,-0.00599741842597723,1713350780.61655
0.000192540712305345,-0.00600220216438174,1713350780.6178
0.000224971401621588,-0.00600025523453951,1713350780.65842
0.000184535208973102,-0.00601453520357609,1713350780.65925
0.000150589956319891,-0.00602758908644319,1713350780.71643
0.000219562280108221,-0.00602917606011033,1713350780.71772
0.000196050634258427,-0.00602117041125894,1713350780.74133
0.000155782719957642,-0.00603888835757971,1713350780.74183
9.68112653936259E-05,-0.00605949107557535,1713350780.83236
0.000154220077092759,-0.00604155659675598,1713350780.83318
0.000161816889885813,-0.00605074036866427,1713350780.85785
0.000151190979522653,-0.00606413092464209,1713350780.8586
2.6035908376798E-05,-0.00607893988490105,1713350780.87634
4.6278044464998E-05,-0.00609324406832457,1713350780.87714
9.02962783584371E-05,-0.0061582257039845,1713350780.93272
4.39701543655247E-05,-0.00616546161472797,1713350780.94038
3.64935440302361E-05,-0.0061386083252728,1713350780.96442
6.92367621013545E-06,-0.00618791533634067,1713350780.96503
-6.53662355034612E-05,-0.00622337544336915,1713350780.99689
6.37795601505786E-05,-0.00619031954556704,1713350780.99783
-3.04353270621505E-05,-0.00620202720165253,1713350781.01701
1.0698041478463E-05,-0.00621873559430242,1713350781.01798
6.1976519646123E-05,-0.00622315891087055,1713350781.07673
-6.03177213633899E-05,-0.0061941659078002,1713350781.07788
8.75075784279034E-06,-0.00621556211262941,1713350781.09268
0.000177274967427365,-0.0061785876750946,1713350781.09387
-8.46227067086147E-06,-0.00618265056982636,1713350781.15248
-6.07023721386213E-05,-0.00622664485126734,1713350781.15373
-0.0001720341242617,-0.00620015198364854,1713350781.17273
0.00011212508979952,-0.00615567713975906,1713350781.17399
5.72405333514325E-05,-0.00617827521637082,1713350781.22153
-8.41419023345225E-06,-0.00620219577103853,1713350781.22218
-2.04344614758156E-05,-0.00619431026279926,1713350781.2733
0.000179438618943095,-0.00618168897926807,1713350781.27388
-9.41668040468358E-05,-0.00618284288793802,1713350781.29231
4.79849222756457E-05,-0.00617906870320439,1713350781.29364
5.65433583687991E-05,-0.00617779465392232,1713350781.34082
5.56778977625072E-05,-0.00620363792404532,1713350781.34151
6.44526953692548E-05,-0.00618164101615548,1713350781.37237
4.17824630858377E-05,-0.00618805969133973,1713350781.37305
6.27939007245004E-05,-0.00620154663920403,1713350781.44458
3.76715324819088E-05,-0.0062137832865119,1713350781.446
5.20237335877027E-05,-0.00619219476357102,1713350781.46845
6.07744914304931E-05,-0.00613050675019622,1713350781.49659
7.66652883612551E-05,-0.0061619277112186,1713350781.54871
0.000113807931484189,-0.00618697796016932,1713350781.55019
8.14012819319032E-05,-0.00614348845556378,1713350781.56863
0.000164148834301159,-0.00608261814340949,1713350781.56974
0.000179943468538113,-0.00592080084607005,1713350781.60053
0.000183862066478468,-0.00609069550409913,1713350781.60167
0.000181650335434824,-0.00622885674238205,1713350781.61277
0.000201748232939281,-0.00615490786731243,1713350781.61387
0.000221148948185146,-0.00596090080216527,1713350781.66471
0.000243097965721972,-0.00609341217204928,1713350781.66574
0.000236006017075852,-0.00620207563042641,1713350781.70047
0.00024206422676798,-0.00621558632701635,1713350781.70163
0.000242689275182784,-0.006115288939327,1713350781.75241
0.00023377024626825,-0.00610418245196343,1713350781.75311
0.000232063364819624,-0.00610670680180192,1713350781.76845
0.00024223250511568,-0.00612788647413254,1713350781.76917
0.000240814115386456,-0.0061207702383399,1713350781.80883
0.000251584278885275,-0.00609341217204928,1713350781.80976
0.000252618017839268,-0.00608002161607146,1713350781.85648
0.000247713760472834,-0.00610495172441006,1713350781.8575
0.00025269013713114,-0.0060900948010385,1713350781.89279
0.000249035976594314,-0.0060821371152997,1713350781.89396
0.000245405855821446,-0.00608011754229665,1713350781.93681
0.000244756753090769,-0.0060682175680995,1713350781.93797
0.000235236715525389,-0.00607016496360302,1713350781.9964
0.000232736492762342,-0.006073915399611,1713350781.99739
0.000241198766161688,-0.00606432324275374,1713350782.06979
0.000244011505856179,-0.0060620391741395,1713350782.07021
0.000247112737270072,-0.00605028355494142,1713350782.08884
0.000255887542152777,-0.00602907966822386,1713350782.08996
0.000251031335210428,-0.00602660328149796,1713350782.11249
0.00025586350238882,-0.00601479969918728,1713350782.11384
0.000255647144513205,-0.00600523129105568,1713350782.17266
0.000258700281847268,-0.00599167263135314,1713350782.17388
0.000264349801000208,-0.00599015783518553,1713350782.21633
0.00025930130505003,-0.00598907610401511,1713350782.21718
0.000267787603661418,-0.00599169684574008,1713350782.24466
0.000269590644165874,-0.00598494103178382,1713350782.2458
0.000272764009423554,-0.00597852235659957,1713350782.2727
0.000277836545137689,-0.00598071003332734,1713350782.27393
0.000275576749118045,-0.00597967626526952,1713350782.29276
0.000271201366558671,-0.00598347466439009,1713350782.29374
0.00028514486621134,-0.00598811451345682,1713350782.32856
0.000281130109215155,-0.00598354684188962,1713350782.32983
0.000289832794805989,-0.005977897439152,1713350782.43268
0.000276971084531397,-0.00598275335505605,1713350782.43353
0.000288558629108593,-0.00597501266747713,1713350782.43437
0.000321806699503213,-0.0059662857092917,1713350782.43537
0.000308175716781989,-0.00596243934705853,1713350782.46054
0.000268893461907282,-0.0059646749868989,1713350782.46172
0.000251848716288805,-0.00598667236045003,1713350782.50918
0.00029079441446811,-0.0059904707595706,1713350782.51131
0.000286539230728522,-0.00599179277196527,1713350782.57255
0.000256176019320264,-0.00599501421675086,1713350782.57389
0.000249925476964563,-0.00600114464759827,1713350782.62871
0.000241847868892364,-0.00599477393552661,1713350782.62977
0.000255118240602314,-0.00598703278228641,1713350782.64875
0.000212470316910185,-0.00599691364914179,1713350782.6499
9.20271995710209E-05,-0.00599886057898402,1713350782.6764
0.0002004740817938,-0.00601758807897568,1713350782.67761
0.000140132324304432,-0.00601794896647334,1713350782.70022
9.28926601773128E-05,-0.00603746995329857,1713350782.701
0.000167274090927094,-0.00605283165350556,1713350782.74821
0.000111692359496374,-0.00608516624197364,1713350782.7494
-0.000175063236383721,-0.00612031342461705,1713350782.77625
0.000172370695509017,-0.00607716059312224,1713350782.77714
0.000110322049295064,-0.00612137140706182,1713350782.82945
-8.76518170116469E-05,-0.00614800816401839,1713350782.83028
0.000198502762941644,-0.00611589010804892,1713350782.873
0.000111812565592118,-0.00613529095426202,1713350782.87401
6.97175721597887E-07,-0.00613091560080648,1713350782.89641
0.000131646011141129,-0.00611634692177177,1713350782.89829
-2.02421379071893E-05,-0.00616356264799833,1713350782.94046
6.30102658760734E-05,-0.00614868151023984,1713350782.94182
0.000137151291710325,-0.00611742865294218,1713350782.97282
4.49317740276456E-05,-0.00615103729069233,1713350782.97399
5.16871659783646E-05,-0.00615868205204606,1713350783.0294
2.89448144030757E-05,-0.00615827366709709,1713350783.03077
8.56083715916611E-05,-0.00615211902186275,1713350783.05648
4.41865195170976E-05,-0.00615558121353388,1713350783.05768
0.000109961445559748,-0.00611295690760016,1713350783.10876
0.00016136011981871,-0.00610829330980778,1713350783.10994
0.000149556217365898,-0.00610295636579394,1713350783.15684
3.71666792489123E-05,-0.00611668359488249,1713350783.15792
0.000138040792080574,-0.00609831651672721,1713350783.21645
6.79145305184647E-05,-0.00611471198499203,1713350783.21772
0.000110682660306338,-0.00612257327884436,1713350783.24487
0.000109961445559748,-0.00612153951078653,1713350783.24671
9.75805669440888E-05,-0.00611680373549461,1713350783.27649
0.000101859783171676,-0.00611538533121347,1713350783.27771
7.88770194048993E-05,-0.00611793342977762,1713350783.30046
0.000165471050422639,-0.0061086299829185,1713350783.30179
5.5004762543831E-05,-0.00613848818466067,1713350783.349
0.000184655407792889,-0.00606066873297095,1713350783.35024
0.000198550842469558,-0.00594712560996413,1713350783.37263
0.000210811514989473,-0.0060320608317852,1713350783.37379
0.000232808612054214,-0.006180414929986,1713350783.42055
0.000250165903707966,-0.00614841701462865,1713350783.42182
0.000259205145994201,-0.00614377716556191,1713350783.45665
0.000271730270469561,-0.00617647217586637,1713350783.45787
0.000275672908173874,-0.00613509863615036,1713350783.50482
0.000275576749118045,-0.0061230780556798,1713350783.50594
0.00026141686248593,-0.00613514659926295,1713350783.53634
0.000258291605859995,-0.00611204374581575,1713350783.53775
0.000259758060565218,-0.00611569778993726,1713350783.56424
0.00026035908376798,-0.00614577252417803,1713350783.56499
0.000280937791103497,-0.00614925846457481,1713350783.60875
0.000291155010927469,-0.00614094035699964,1713350783.6098
0.000294713012408465,-0.00613055471330881,1713350783.68492
0.000297333433991298,-0.0061077643185854,1713350783.7124
0.00029307825025171,-0.00607466045767069,1713350783.75235
0.00029423221712932,-0.00616361061111093,1713350783.75304
0.000292525335680693,-0.00612836703658104,1713350783.78073
0.000291563716018572,-0.00611728429794312,1713350783.78189
0.000279687665170059,-0.00611100997775793,1713350783.80831
0.000282524473732337,-0.00614094035699964,1713350783.8094
0.000283606292214245,-0.00613832008093596,1713350783.82934
0.000272307224804535,-0.00614459440112114,1713350783.83016
0.000270888849627227,-0.00614317599684,1713350783.85316
0.000271369644906372,-0.00613115588203073,1713350783.85461
0.000264662347035483,-0.00614050775766373,1713350783.92148
0.000265599926933646,-0.00612526573240757,1713350783.92205
0.000264421920292079,-0.00611860677599907,1713350783.94463
0.000262306362856179,-0.00611714040860534,1713350783.94574
0.000262017885688692,-0.00611649127677083,1713350783.99266
0.000264590227743611,-0.00610401388257742,1713350783.99371
0.00026971084298566,-0.00609105639159679,1713350784.02047
0.000280144449789077,-0.00606884295120835,1713350784.02311
0.000233000944717787,-0.00606694351881743,1713350784.07656
0.000264253641944379,-0.00604795152321458,1713350784.07782
0.000256055820500478,-0.00602665171027184,1713350784.1004
0.000271634082309902,-0.00600777985528111,1713350784.10102
0.000281875371001661,-0.00599681725725532,1713350784.13678
0.000280673324596137,-0.0060033081099391,1713350784.13788
0.000282332126516849,-0.00601359736174345,1713350784.18083
0.000300025974866003,-0.00600758753716946,1713350784.18201
0.000298246974125504,-0.00600477447733283,1713350784.22839
0.000311637559207156,-0.00599833205342293,1713350784.26056
0.000255286518950015,-0.00601114565506578,1713350784.30887
0.000188213409273885,-0.00600922200828791,1713350784.30995
0.00034909273381345,-0.00599133595824242,1713350784.33289
0.000295121717499569,-0.00602150708436966,1713350784.33393
0.000282885070191696,-0.00599907711148262,1713350784.36081
0.000207469885936007,-0.00603900849819183,1713350784.36197
0.00029502552933991,-0.00601809332147241,1713350784.38476
0.000287116214167327,-0.00599736999720335,1713350784.38594
0.000228601522394456,-0.0060345851816237,1713350784.41306
0.000208888275665231,-0.00600818824023008,1713350784.41375
0.000213984865695238,-0.00601929519325495,1713350784.48898
7.62806448619813E-05,-0.00606915540993214,1713350784.49005
0.000130347820231691,-0.00602944009006023,1713350784.54095
0.000179727096110582,-0.00607403554022312,1713350784.54223
9.38062003115192E-05,-0.00609035883098841,1713350784.56863
-2.86322865576949E-05,-0.00613800715655088,1713350784.56966
0.000241318964981474,-0.00610790867358446,1713350784.59277
0.000188862512004562,-0.00615303264930844,1713350784.59375
1.8463137166691E-05,-0.00618880521506071,1713350784.61677
2.24779068958014E-05,-0.00615260004997253,1713350784.61788
0.00031707072048448,-0.00616216799244285,1713350784.66869
-2.55310569627909E-05,-0.0061788042075932,1713350784.66976
0.000205931297386996,-0.00616226438432932,1713350784.69672
0.000259181106230244,-0.00614418601617217,1713350784.69773
-7.27226433809847E-05,-0.00618039071559906,1713350784.74896
0.000242617155890912,-0.00613572355359793,1713350784.74998
0.00010488888801774,-0.00613625254482031,1713350784.77283
1.96170822164277E-05,-0.00617635203525424,1713350784.80038
7.07993967807852E-05,-0.00614329613745213,1713350784.84885
0.000234299135627225,-0.00610651448369026,1713350784.85018
0.000155566347530112,-0.00614300789311528,1713350784.87275
7.41169933462515E-05,-0.00613343948498368,1713350784.87389
2.88486512545205E-06,-0.00612988183274865,1713350784.91645
0.000189992410014384,-0.00612670835107565,1713350784.91751
0.000180328119313344,-0.00613139616325498,1713350784.937
8.21946159703657E-05,-0.00614098832011223,1713350784.93804
0.000147344486322254,-0.00612956937402487,1713350784.99689
0.000115586932224687,-0.00614630151540041,1713350784.99807
0.000127294668345712,-0.00613699760288,1713350785.02033
8.15936000435613E-05,-0.00616067741066217,1713350785.02175
0.000119144933705684,-0.00615952350199223,1713350785.06474
0.000136309885419905,-0.00615702336654067,1713350785.06589
9.20271995710209E-05,-0.00617603957653046,1713350785.10848
0.000211556776775978,-0.00612824689596891,1713350785.10951
0.000191939689102583,-0.00609442172572017,1713350785.13688
0.000242785448790528,-0.00605588499456644,1713350785.13829
0.000267571245785803,-0.0059941727668047,1713350785.18095
0.000307430454995483,-0.00591116072610021,1713350785.18199
0.000344164407579228,-0.00619630562141538,1713350785.22899
0.000365921092452481,-0.00611331779509783,1713350785.23081
0.000364118051948026,-0.00613993080332875,1713350785.24474
0.000340366008458659,-0.00601330911740661,1713350785.2461
0.000330437265802175,-0.00613682949915528,1713350785.30047
0.000306012079818174,-0.00605812063440681,1713350785.3018
0.000296492013148963,-0.00607232842594385,1713350785.40468
0.000308247836073861,-0.00608302652835846,1713350785.40588
0.000314546457957476,-0.00609269086271524,1713350785.4167
0.000336231023538858,-0.00611754879355431,1713350785.41802
0.000332528783474118,-0.00607881974428892,1713350785.43654
0.00033726476249285,-0.00601864606142044,1713350785.43824
0.000335317483404651,-0.00599729828536511,1713350785.45659
0.00032510026358068,-0.00608824333176017,1713350785.45736
0.00032324914354831,-0.00600895751267672,1713350785.50889
0.00034159206552431,-0.00610283622518182,1713350785.51011
0.000337384990416467,-0.00612754980102181,1713350785.53739
0.000337937904987484,-0.00614981120452285,1713350785.53797
0.000327504327287897,-0.00611036084592342,1713350785.58827
0.000327191781252623,-0.00609456608071923,1713350785.58939
0.000327191781252623,-0.00608742609620094,1713350785.61251
0.000320724881021306,-0.00607699248939753,1713350785.61357
0.000328658265061676,-0.00606797728687525,1713350785.65648
0.000336231023538858,-0.00604961020871997,1713350785.65734
0.000333274045260623,-0.00606425106525421,1713350785.70861
0.000338010024279356,-0.00606290483847261,1713350785.70982
0.000341519946232438,-0.0060613420791924,1713350785.72447
0.000347842607880011,-0.00603566691279411,1713350785.72536
0.000356449134415016,-0.00602196389809251,1713350785.79247
0.000352049712091684,-0.00600566435605288,1713350785.79319
0.000337697507347912,-0.00599809130653739,1713350785.82078
0.000377676915377378,-0.00597893120720983,1713350785.82184
0.000381090678274631,-0.00596210267394781,1713350785.86485
0.000377725024009123,-0.00594623619690537,1713350785.86607
0.000380970479454845,-0.00594164431095123,1713350785.91277
0.00039989038486965,-0.00591849302873015,1713350785.91385
0.000397919066017494,-0.00591635378077626,1713350785.93254
0.000396164105040953,-0.00591952679678798,1713350785.9333
0.000413689675042406,-0.0059120743535459,1713350786.0125
0.000408833468100056,-0.00592250796034932,1713350786.01368
0.000409626809414476,-0.00593887967988849,1713350786.03246
0.000407318904763088,-0.00594849558547139,1713350786.03331
0.00041215107194148,-0.00595056312158704,1713350786.10048
0.000394697621231899,-0.0059420526959002,1713350786.10166
0.000394000468077138,-0.00593548966571689,1713350786.14494
0.000387269101338461,-0.00593224447220564,1713350786.14595
0.000410059554269537,-0.00593503285199404,1713350786.21694
0.000370368594303727,-0.00594580313190818,1713350786.21811
0.000414651294704527,-0.0059493612498045,1713350786.2404
0.000391884881537408,-0.00595150096341968,1713350786.24106
0.00034450099337846,-0.00594359170645475,1713350786.26866
0.000285168905975297,-0.00595953036099672,1713350786.26995
0.000432825938332826,-0.00595073169097304,1713350786.29649
0.000373614078853279,-0.00596602121368051,1713350786.2976
0.000359333993401378,-0.0059680650010705,1713350786.32451
0.000312214542645961,-0.0059866001829505,1713350786.32564
0.000208888275665231,-0.00599662493914366,1713350786.34484
0.00038630748167634,-0.00601376593112946,1713350786.34638
0.000224827163037844,-0.00604321574792266,1713350786.36465
0.000201868431759067,-0.00605812063440681,1713350786.36596
0.000312911695800722,-0.00607338640838861,1713350786.41651
0.000343467225320637,-0.00610492751002312,1713350786.41773
0.000164269033120945,-0.00613589165732265,1713350786.49657
1.65398942044703E-05,-0.00619471911340952,1713350786.49806
0.000349982234183699,-0.00612617935985327,1713350786.52043
0.00029079441446811,-0.00615642266348004,1713350786.52187
0.000255094200838357,-0.00614250311627984,1713350786.545
0.000202685812837444,-0.00616060569882393,1713350786.54612
0.000390226079616696,-0.00612932862713933,1713350786.56479
0.000107605468656402,-0.00616760132834315,1713350786.56604
0.000321926898322999,-0.00610927911475301,1713350786.61278
0.000269278127234429,-0.00612045777961612,1713350786.61394
3.39212056132965E-05,-0.00612935284152627,1713350786.68853
0.000308632501401007,-0.00613603601232171,1713350786.68915
0.000375104602426291,-0.00605049962177873,1713350786.70871
0.00032404248486273,-0.00610103318467736,1713350786.7097
0.000299184554023668,-0.00610682694241405,1713350786.75272
0.000327600486343727,-0.00609300332143903,1713350786.75395
0.00027641816996038,-0.00609497493132949,1713350786.77747
0.000209248886676505,-0.00610992824658752,1713350786.77837
0.000290553987724707,-0.00608415668830276,1713350786.80534
0.000232904785661958,-0.00611103372648358,1713350786.80612
0.000269807002041489,-0.00609124870970845,1713350786.87292
0.000253195001278073,-0.00611110590398312,1713350786.87409
0.000242424837779254,-0.0061125485226512,1713350786.90883
0.000238987035118043,-0.00609588855877519,1713350786.91009
0.0002896404475905,-0.00609485479071736,1713350786.96063
0.000326903304085135,-0.00604982674121857,1713350786.96264
0.000342433486366644,-0.0060636498965323,1713350787.00097
0.00040227040881291,-0.00589026976376772,1713350787.02836
0.000406717910664156,-0.00592522462829948,1713350787.05249
0.00046083316556178,-0.00616199988871813,1713350787.05377
0.000476555695058778,-0.00609177723526955,1713350787.08026
0.000493408122565597,-0.00607737712562084,1713350787.0823
0.000497062283102423,-0.00618469389155507,1713350787.10451
0.000489176949486136,-0.00609853258356452,1713350787.10526
0.000472973653813824,-0.00607143901288509,1713350787.12448
0.000451673724455759,-0.00602612271904945,1713350787.12592
0.000450832303613424,-0.00610098475590348,1713350787.18082
0.000447490660008043,-0.00609055114910007,1713350787.18199
0.00044628864270635,-0.00613601179793477,1713350787.23246
0.000473190011689439,-0.00602494459599257,1713350787.23363
0.000475185370305553,-0.0061984695494175,1713350787.26147
0.000453813321655616,-0.00610411027446389,1713350787.26223
0.000447106023784727,-0.00609807623550296,1713350787.32885
0.000447971484391019,-0.00607557408511639,1713350787.33083
0.000449149461928755,-0.00607961276546121,1713350787.3689
0.000448981183581054,-0.0060777859762311,1713350787.37003
0.000448981183581054,-0.00607694452628493,1713350787.40096
0.000454125867690891,-0.00609168130904436,1713350787.40229
0.000453861401183531,-0.00609935028478503,1713350787.42853
0.000455424044048414,-0.00609742710366845,1713350787.42957
0.000456674140878022,-0.00609348434954882,1713350787.47689
0.000461530347820371,-0.00608269032090902,1713350787.47817
0.000455231725936756,-0.00609093578532338,1713350787.53799
0.000453380605904385,-0.00608403654769063,1713350787.5392
0.000451072701252997,-0.00608446914702654,1713350787.56045
0.000449269660748541,-0.00607381900772452,1713350787.58839
0.000448332080850378,-0.00606453930959106,1713350787.617
0.000449654326075688,-0.0060551636852324,1713350787.61822
0.000445759738795459,-0.00604561949148774,1713350787.64053
0.000448836944997311,-0.00603932095691562,1713350787.64237
0.000454798981081694,-0.0060350657440722,1713350787.66826
0.000459486909676343,-0.00602614693343639,1713350787.66949
0.000465400866232812,-0.00601924723014236,1713350787.69627
0.000472012034151703,-0.00600751535966992,1713350787.69722
0.000475738313980401,-0.0060165305621922,1713350787.80067
0.00048667675582692,-0.00600871723145247,1713350787.80247
0.000470329192467034,-0.00602294923737645,1713350787.82451
0.000475594046292827,-0.00601766025647521,1713350787.82548
0.000458597409306094,-0.00602126633748412,1713350787.85279
0.000475930632092059,-0.00601388607174158,1713350787.85399
0.000453380605904385,-0.00601859809830785,1713350787.87261
0.000426935992436484,-0.0060279737226665,1713350787.87392
0.000469343533040956,-0.00602506473660469,1713350787.90053
0.000440206378698349,-0.00603590719401836,1713350787.90184
0.000423690536990762,-0.00604071514680982,1713350787.92839
0.000418690091464669,-0.00604323949664831,1713350787.92926
0.000409290252719075,-0.00604607630521059,1713350787.98076
0.000386283441912383,-0.00606240006163716,1713350787.98141
0.000367147178621963,-0.00607307394966483,1713350788.02427
0.000402991630835459,-0.00605956325307488,1713350788.0252
0.00040623708628118,-0.00608581537380815,1713350788.05278
0.000401116471039131,-0.00607720902189612,1713350788.05383
0.000431479653343558,-0.00609192159026861,1713350788.10068
0.000404265767429024,-0.00610451912507415,1713350788.12896
0.000379768462153152,-0.00611281301826239,1713350788.24091
0.000478599133202806,-0.00615620613098145,1713350788.24201
0.00029740555328317,-0.00617615971714258,1713350788.26878
0.000317190919304267,-0.00619178591296077,1713350788.26972
0.000591060786973685,-0.00614139717072248,1713350788.29614
0.000384360202588141,-0.00619193026795983,1713350788.2969
0.000161648611538112,-0.00615820148959756,1713350788.32445
0.000432032597018406,-0.00614654179662466,1713350788.32561
0.000312503019813448,-0.00616685580462217,1713350788.34471
0.00034873210825026,-0.00613661296665669,1713350788.34636
0.000501750153489411,-0.00613187719136477,1713350788.36932
0.000435326161095873,-0.00614310381934047,1713350788.37005
0.000421070115407929,-0.00609959056600928,1713350788.40045
0.000426166690886021,-0.00611074548214674,1713350788.40161
0.000308271875837818,-0.00613190094009042,1713350788.42434
0.000315604236675426,-0.00614305585622788,1713350788.42544
0.000421094155171886,-0.00610170606523752,1713350788.44832
0.000498432549647987,-0.00611649127677083,1713350788.44935
0.000439172639744356,-0.0060670399107039,1713350788.50049
0.000457563641248271,-0.00608771434053779,1713350788.50194
0.000429195817559958,-0.00608269032090902,1713350788.52456
0.000444966397481039,-0.00608230521902442,1713350788.52568
0.000405948609113693,-0.00605958700180054,1713350788.58062
0.000418642011936754,-0.00605547614395618,1713350788.58169
0.000412607827456668,-0.0060442010872066,1713350788.66056
0.00041796886944212,-0.0060574715025723,1713350788.66172
0.000380080979084596,-0.00603633979335427,1713350788.71224
0.00042061333078891,-0.00604126835241914,1713350788.7134
0.000426575395977125,-0.00606997264549136,1713350788.74037
0.000461818824987859,-0.00602157926186919,1713350788.74159
0.000481844588648528,-0.00600470276549459,1713350788.76421
0.000353444076608866,-0.00604299921542406,1713350788.76561
0.000581059895921499,-0.00591428624466062,1713350788.78886
0.000571780255995691,-0.00613557919859886,1713350788.78933
0.000532786536496133,-0.00605518789961934,1713350788.86077
0.000542258494533598,-0.00599628826603293,1713350788.86186
0.000479224196169525,-0.00604189326986671,1713350788.96431
0.000523410679306835,-0.006030498072505,1713350788.96521
0.000500476045999676,-0.00601780461147428,1713350789.01634
0.000517376523930579,-0.00600686622783542,1713350789.01751
0.000526656163856387,-0.00602306937798858,1713350789.06419
0.000492133956868202,-0.00599691364914179,1713350789.06524
0.000507976685184985,-0.00604593195021153,1713350789.09237
0.000508794037159532,-0.00603287806734443,1713350789.09317
0.000508409400936216,-0.00603720545768738,1713350789.13693
0.000509779725689441,-0.00601323693990707,1713350789.13856
0.000507592048961669,-0.00604605209082365,1713350789.21679
0.000525430077686906,-0.00602066563442349,1713350789.21828
0.000534805934876204,-0.00603105081245303,1713350789.2284
0.000550336088053882,-0.00602999329566956,1713350789.23038
0.000550696742720902,-0.0060195354744792,1713350789.24906
0.000566683651413769,-0.00602701213210821,1713350789.25005
0.000562019820790738,-0.00604049907997251,1713350789.27714
0.00056658749235794,-0.0060311951674521,1713350789.27777
0.000566299015190452,-0.00603674864396453,1713350789.33266
0.000573511177208275,-0.00602838257327676,1713350789.3339
0.000575650774408132,-0.00599900493398309,1713350789.33482
0.000573679455555975,-0.0060558607801795,1713350789.33589
0.000572164950426668,-0.00606461148709059,1713350789.36076
0.00056437577586621,-0.00603968137875199,1713350789.36159
0.000562452536541969,-0.00604153284803033,1713350789.38869
0.000557524210307747,-0.00602506473660469,1713350789.38988
0.000551586213987321,-0.00602953648194671,1713350789.41676
0.000556202023290098,-0.00601256359368563,1713350789.41799
0.00055627414258197,-0.0059888600371778,1713350789.4445
0.000563342066016048,-0.00598506163805723,1713350789.44685
0.000566972186788917,-0.00598241714760661,1713350789.46033
0.000572910183109343,-0.00597094977274537,1713350789.46105
0.000572549586649984,-0.00596539629623294,1713350789.50566
0.000589930859860033,-0.00594784645363689,1713350789.5062
0.000562043860554695,-0.0059370044618845,1713350789.53652
0.000603682070504874,-0.0059216907247901,1713350789.5383
0.000580555060878396,-0.0059237340465188,1713350789.59671
0.000605388951953501,-0.00590894930064678,1713350789.59788
0.000595147663261741,-0.00590534321963787,1713350789.64448
0.00057187641505152,-0.00591366086155176,1713350789.64566
0.000544758688192815,-0.00591796450316906,1713350789.70069
0.000589570263400674,-0.00591503130272031,1713350789.70193
0.000592935946770012,-0.00590875698253512,1713350789.75245
0.000545071205124259,-0.00594130763784051,1713350789.75373
0.000490330916363746,-0.00595356849953532,1713350789.82057
0.000591517542488873,-0.00593936024233699,1713350789.82176
0.000553629652131349,-0.00593705242499709,1713350789.89274
0.000453332526376471,-0.00595089979469776,1713350789.8938
0.000560288899578154,-0.00595433777198195,1713350789.94878
0.00048694119323045,-0.00598133495077491,1713350789.94995
0.000436480098869652,-0.0059728967025876,1713350790.0007
0.0005708186654374,-0.00598318642005324,1713350790.00189
0.000362194812623784,-0.00601612171158195,1713350790.02868
0.000195161133888178,-0.00606898684054613,1713350790.0298
0.000532834616024047,-0.00603105081245303,1713350790.0529
0.000179438618943095,-0.00610091304406524,1713350790.05418
0.000274086225545034,-0.00607216032221913,1713350790.08223
0.000582935113925487,-0.00609004637226462,1713350790.08261
0.000424315570853651,-0.00609543174505234,1713350790.13244
0.000253146921750158,-0.00608314666897059,1713350790.13361
0.000515381165314466,-0.00609516724944115,1713350790.16076
0.000282139808405191,-0.00609016651287675,1713350790.16199
0.000563654582947493,-0.0060482881963253,1713350790.18447
0.000468526151962578,-0.00606163078919053,1713350790.18577
0.000512808794155717,-0.00604939414188266,1713350790.20829
0.000356449134415016,-0.00608574319630861,1713350790.20898
0.000604499480687082,-0.00600811652839184,1713350790.23222
0.000463405507616699,-0.00604862486943603,1713350790.23324
0.000450856343377382,-0.00605980353429914,1713350790.25253
0.000448740785941482,-0.00602561794221401,1713350790.25353
0.000418545852880925,-0.00601160200312734,1713350790.28476
0.000477012450573966,-0.00601054448634386,1713350790.28575
0.000483839976368472,-0.0059854700230062,1713350790.30486
0.00041558887460269,-0.00599898071959615,1713350790.36023
0.000567933777347207,-0.00599184073507786,1713350790.38474
0.000536608975380659,-0.00601064041256905,1713350790.38566
0.00048905675066635,-0.00598169583827257,1713350790.41324
0.000486244010971859,-0.0059856865555048,1713350790.41398
0.000479224196169525,-0.00599965406581759,1713350790.45616
0.000426286918809637,-0.00601275637745857,1713350790.457
0.000532281643245369,-0.00599902914837003,1713350790.48878
0.000484801596030593,-0.0060373255982995,1713350790.4899
0.000501557835377753,-0.00605340860784054,1713350790.54084
0.000509539328049868,-0.00602230010554194,1713350790.54219
0.000494730309583247,-0.00600715447217226,1713350790.54318
0.000451673724455759,-0.00594460126012564,1713350790.54428
0.000504995638038963,-0.00609752302989364,1713350790.56857
0.000621784594841301,-0.00603011343628168,1713350790.56959
0.000542450812645257,-0.0060156648978591,1713350790.64044
0.000517304404638708,-0.00603948906064034,1713350790.6416
0.000501461676321924,-0.00601999228820205,1713350790.69261
0.000406381324864924,-0.00607033306732774,1713350790.69403
0.00058096373686567,-0.00605381745845079,1713350790.71641
0.000501629954669625,-0.00602653156965971,1713350790.71719
0.000538964930456132,-0.00602585822343826,1713350790.72439
0.000270311866188422,-0.00606954004615545,1713350790.72561
0.000592334952671081,-0.00603395979851484,1713350790.80472
0.000498023873660713,-0.00606528483331203,1713350790.80581
0.000409073865739629,-0.00607942044734955,1713350790.8325
0.000500187510624528,-0.00605737557634711,1713350790.83368
0.000479128008009866,-0.00607586279511452,1713350790.84878
0.000401645345846191,-0.00609300332143903,1713350790.86053
0.000583295710384846,-0.00606848206371069,1713350790.8967
0.000478070229291916,-0.00612762197852135,1713350790.898
0.000391283887438476,-0.00610490376129746,1713350790.94833
0.000416766852140427,-0.00609177723526955,1713350790.94955
0.000436191621702164,-0.0060915369540453,1713350790.96869
0.00041611774940975,-0.00608735391870141,1713350790.96989
0.000424051133450121,-0.00603496981784701,1713350791.02446
0.000441528623923659,-0.00614204630255699,1713350791.02572
0.000434148154454306,-0.00611632270738483,1713350791.05703
0.000443235476268455,-0.00612579472362995,1713350791.05835
0.000463333388324827,-0.00611668359488249,1713350791.1244
0.000470665749162436,-0.00611788546666503,1713350791.12554
0.000488479796331376,-0.00606901105493307,1713350791.15241
0.000501509755849838,-0.00608218507841229,1713350791.15363
0.000499826914165169,-0.00609797984361649,1713350791.17646
0.000533123093191534,-0.00607502134516835,1713350791.17776
0.000502759881783277,-0.00610836548730731,1713350791.23249
0.000519323803018779,-0.00612081820145249,1713350791.23355
0.000495307322125882,-0.00611964054405689,1713350791.26041
0.000460111943539232,-0.00603811908513308,1713350791.26166
0.000446817517513409,-0.00584932835772634,1713350791.28452
0.000429844920290634,-0.00610276404768229,1713350791.28573
0.000453933520475403,-0.00605251919478178,1713350791.33326
0.000508529599756002,-0.00610499968752265,1713350791.33413
0.000450543826445937,-0.00606559729203582,1713350791.43679
0.000461265910416842,-0.00604287907481194,1713350791.43788
0.000470497470814735,-0.00601967982947826,1713350791.49328
0.000463285308796912,-0.00601066462695599,1713350791.51671
0.00045025532017462,-0.00598068628460169,1713350791.53682
0.000530646881088614,-0.00596279976889491,1713350791.53796
0.000458092545159161,-0.00595318386331201,1713350791.56935
0.000374743976863101,-0.00596441049128771,1713350791.57006
0.000466386525658891,-0.00593835068866611,1713350791.59279
0.000442538323113695,-0.00594625994563103,1713350791.5939
0.000416887050960213,-0.005956188775599,1713350791.68452
0.000473550608148798,-0.0059580160304904,1713350791.68556
0.000451649684691802,-0.00597537308931351,1713350791.70872
0.000371450441889465,-0.00598265742883086,1713350791.70982
0.000489369267597795,-0.00595784746110439,1713350791.73247
0.000430518033681437,-0.00596082862466574,1713350791.73341
0.000426960032200441,-0.0059577994979918,1713350791.78491
0.000448860984761268,-0.00594746181741357,1713350791.78605
0.000408136285841465,-0.00594981806352735,1713350791.84428
0.000330677663441747,-0.00596448266878724,1713350791.84549
0.000469223305117339,-0.00594034604728222,1713350791.86093
0.000419170915847644,-0.00594484154134989,1713350791.86204
0.00025612793979235,-0.00598263321444392,1713350791.89279
0.000393255206290632,-0.00596453063189983,1713350791.89403
0.000343731691827998,-0.00596859352663159,1713350791.91639
0.00029307825025171,-0.00600326014682651,1713350791.91765
0.000142584452987649,-0.00605939468368888,1713350791.95682
0.000470257073175162,-0.00604521110653877,1713350791.95781
0.000276634527835995,-0.00605696672573686,1713350791.9588
0.000264710426563397,-0.00609483057633042,1713350791.95984
0.000388062442652881,-0.00607143901288509,1713350792.08839
0.000426911952672526,-0.00603258982300758,1713350792.08909
0.000377797143300995,-0.00605213455855846,1713350792.0902
0.00021485032630153,-0.00607593450695276,1713350792.09152
8.68825227371417E-05,-0.0060883155092597,1713350792.1047
0.000256873201578856,-0.00599917303770781,1713350792.10591
0.000337144563673064,-0.00606800150126219,1713350792.14546
0.000415516755310819,-0.00600975099951029,1713350792.1476
0.000287717208266258,-0.00606035627424717,1713350792.20161
0.000387822045013309,-0.00603482546284795,1713350792.20286
0.000220668138354085,-0.0060699968598783,1713350792.20845
0.000367002940038219,-0.00603751791641116,1713350792.20952
0.000336783967213705,-0.00602831039577723,1713350792.26853
0.000316830322844908,-0.00603131530806422,1713350792.27036
0.000462467927718535,-0.00597965251654387,1713350792.2767
0.000357603072188795,-0.00601076055318117,1713350792.27777
0.000370969617506489,-0.00602196389809251,1713350792.30892
0.000354501855326816,-0.00603775819763541,1713350792.31022
0.00036743565578945,-0.00604345602914691,1713350792.3326
0.000367844360880554,-0.00607843510806561,1713350792.33365
0.000367579894373193,-0.0060839643701911,1713350792.37268
0.000402871432015672,-0.00604001805186272,1713350792.374
0.000397606549086049,-0.00606033252552152,1713350792.40869
0.000373565999325365,-0.00607417989522219,1713350792.40965
0.000488071091240272,-0.00601508794352412,1713350792.45633
0.000438980321632698,-0.00605278369039297,1713350792.45728
0.000427512975875288,-0.00604136427864432,1713350792.49314
0.000406886189011857,-0.00604083528742194,1713350792.49434
0.000403905170969665,-0.00605030730366707,1713350792.55679
0.000381619582185522,-0.00603826297447085,1713350792.55812
0.000422127894125879,-0.00602446403354406,1713350792.58506
0.000350174552295357,-0.00603780662640929,1713350792.58628
0.000464246928459033,-0.00602463213726878,1713350792.61379
0.000441624782979488,-0.00604845630005002,1713350792.61496
0.000334500102326274,-0.00606261612847447,1713350792.65258
0.000410396110964939,-0.00605857744812965,1713350792.65345
0.000384913146262988,-0.00606038048863411,1713350792.72442
0.000350967893609777,-0.00607744930312038,1713350792.72589
0.000530502642504871,-0.00605937093496323,1713350792.73254
0.000366858672350645,-0.00608468567952514,1713350792.73417
0.00042837843648158,-0.0060805743560195,1713350792.80134
0.000411405810154974,-0.00605045165866613,1713350792.80242
0.000386235362384468,-0.00608158437535167,1713350792.82519
0.00038366302032955,-0.00609321985393763,1713350792.82615
0.000391812762245536,-0.00611526519060135,1713350792.84482
0.000392606103559956,-0.00608485378324986,1713350792.84599
0.000393952388549224,-0.00606516469269991,1713350792.88926
0.000391812762245536,-0.00606403453275561,1713350792.89006
0.000403736863518134,-0.006036676466465,1713350792.94082
0.000420925876824185,-0.00604463368654251,1713350792.94279
0.000439196679508314,-0.00603980198502541,1713350792.98445
0.000455928908195347,-0.00602465635165572,1713350792.98633
0.00046648268471472,-0.00606432324275374,1713350793.01229
0.000477517314720899,-0.00606189481914043,1713350793.01357
0.000465521065052599,-0.00604446558281779,1713350793.04458
0.000437369599239901,-0.00605263933539391,1713350793.04572
0.000389360619010404,-0.00603980198502541,1713350793.1566
0.000460712966741994,-0.00600934261456132,1713350793.15818
0.0004171755281277,-0.00601431867107749,1713350793.17291
0.000387485459214076,-0.00600958289578557,1713350793.17411
0.000421526870923117,-0.0060117463581264,1713350793.17528
0.000409170053899288,-0.00600975099951029,1713350793.17639
0.000406838109483942,-0.00600193813443184,1713350793.22125
0.000409843167290092,-0.00599789898842573,1713350793.22273
0.000399457669118419,-0.00598763395100832,1713350793.24843
0.00039159640436992,-0.00596859352663159,1713350793.24952
0.000386956584407017,-0.0059575829654932,1713350793.3127
0.000415877351770178,-0.00593032129108906,1713350793.31402
0.000425830134190619,-0.00589952524751425,1713350793.33294
0.000409650849178433,-0.00592945562675595,1713350793.33409
0.000364670995622873,-0.00591995986178517,1713350793.37222
0.00043022955651395,-0.00591676216572523,1713350793.37297
0.000446553080109879,-0.00590498233214021,1713350793.41381
0.000443259516032413,-0.00592034449800849,1713350793.41545
0.00035976673825644,-0.00593628315255046,1713350793.4608
0.000433523120591417,-0.00593719677999616,1713350793.46195
0.000410876906244084,-0.00594472140073776,1713350793.48873
0.00034856382990256,-0.00593786966055632,1713350793.48987
0.000365704734576866,-0.00594313489273191,1713350793.54093
0.000401909783249721,-0.00593416765332222,1713350793.54202
0.000341808452503756,-0.0059337830170989,1713350793.56868
0.00031098845647648,-0.00593125866726041,1713350793.5696
0.000325460860040039,-0.0059500583447516,1713350793.61256
0.000285024667391554,-0.00593686010688543,1713350793.64451
0.000343803811119869,-0.00601160200312734,1713350793.67273
0.000284976587863639,-0.00600222637876868,1713350793.67389
0.000180520437425002,-0.00602970458567143,1713350793.70847
0.000244275957811624,-0.00606189481914043,1713350793.70938
0.000260527362115681,-0.00605963543057442,1713350793.74468
0.000170856132172048,-0.00606853002682328,1713350793.74561
0.000313392520183697,-0.00605069193989039,1713350793.77253
0.000373565999325365,-0.00600794795900583,1713350793.7736
0.000261344743194059,-0.00602701213210821,1713350793.82449
0.000224370392970741,-0.00602992111817002,1713350793.82525
0.000333995267283171,-0.00601595360785723,1713350793.85256
0.000321566301863641,-0.00602633925154805,1713350793.85393
0.000146382866660133,-0.00606490019708872,1713350793.89689
0.000252569938311353,-0.00602511316537857,1713350793.89796
0.000306613073917106,-0.00603350298479199,1713350793.92868
0.000171072504599579,-0.00602093013003469,1713350793.92999
0.000266777904471382,-0.00602939212694764,1713350793.98088
0.000328249559970573,-0.00599080696702004,1713350793.98257
0.000296972837531939,-0.00599770667031407,1713350794.00453
0.000158571419888176,-0.00601643417030573,1713350794.00564
0.000426863873144612,-0.00599328335374594,1713350794.05637
0.000309449882479385,-0.00600838055834174,1713350794.05732
0.000286058406345546,-0.0059609729796648,1713350794.09258
0.000282187887933105,-0.00599520653486252,1713350794.09345
0.00027103308821097,-0.00597453163936734,1713350794.14456
0.000281274347798899,-0.00597335351631045,1713350794.14585
0.00031072401907295,-0.00598155148327351,1713350794.16856
0.000257906940532848,-0.00597253628075123,1713350794.18878
0.000278774125035852,-0.00598311424255371,1713350794.23653
0.000310868257656693,-0.00598058989271522,1713350794.23777
0.000283870729617774,-0.00601895852014422,1713350794.29732
0.000321446103043854,-0.00599229754880071,1713350794.29885
0.000345678970916197,-0.00598486931994557,1713350794.30558
0.000346207845723256,-0.00600001448765397,1713350794.30617
0.000373013055650517,-0.00593010475859046,1713350794.34898
0.000396091985749081,-0.00585057865828276,1713350794.35006
0.000413881993154064,-0.00596929062157869,1713350794.365
0.00043984578223899,-0.00605634180828929,1713350794.36618
0.000453524844488129,-0.00605653412640095,1713350794.40902
0.000463790143840015,-0.00605449033901095,1713350794.40996
0.000446240563178435,-0.00604571588337421,1713350794.45269
0.00043984578223899,-0.00598948495462537,1713350794.45409
0.000431599881267175,-0.00599566334858537,1713350794.5009
0.000409338332246989,-0.00600955868139863,1713350794.50213
0.000415444636018947,-0.00600650580599904,1713350794.52493
0.000418401614297181,-0.00604941789060831,1713350794.52606
0.000433378852903843,-0.00602633925154805,1713350794.56877
0.000423137593315914,-0.00599179277196527,1713350794.56991
0.000416502414736897,-0.00598510960116982,1713350794.62049
0.000398784526623785,-0.00598073424771428,1713350794.62188
0.00040606880793348,-0.00596517976373434,1713350794.64466
0.000410348031437025,-0.00598066207021475,1713350794.64583
0.000412439549108967,-0.00597128644585609,1713350794.69288
0.000408160325605422,-0.00596013152971864,1713350794.69398
0.000396933406591415,-0.00596546847373247,1713350794.74072
0.00039777482743375,-0.00595582835376263,1713350794.75677
0.000404241727665067,-0.00594616401940584,1713350794.7684
0.000392606103559956,-0.00593887967988849,1713350794.76946
0.000394288945244625,-0.00593534577637911,1713350794.82836
0.000401044322643429,-0.00593161908909678,1713350794.82916
0.000404674472520128,-0.00592947984114289,1713350794.85752
0.000413713714806363,-0.00592267606407404,1713350794.85865
0.000418521813116968,-0.0059169065207243,1713350794.88827
0.000421166274463758,-0.00592414289712906,1713350794.88915
0.000427464896347374,-0.00592721998691559,1713350794.93651
0.000431383494287729,-0.00592349376529455,1713350794.93764
0.000436912814620882,-0.00591380521655083,1713350795.01247
0.000427633174695075,-0.00590190524235368,1713350795.01376
0.00041267994674854,-0.00590452551841736,1713350795.033
0.000459462869912386,-0.00589236104860902,1713350795.03411
0.000442922959337011,-0.00588219193741679,1713350795.05255
0.000421647069742903,-0.00587457092478871,1713350795.05342
0.000419531512307003,-0.00587639817968011,1713350795.10464
0.000415685033658519,-0.00587517209351063,1713350795.10563
0.000421935576014221,-0.00586868124082685,1713350795.13243
0.00039159640436992,-0.00588517310097814,1713350795.13312
0.000399265351006761,-0.00587495556101203,1713350795.18872
0.000360079255187884,-0.00588363455608487,1713350795.18978
0.000333754869643599,-0.00588815379887819,1713350795.21238
0.000382581201847643,-0.00588154280558229,1713350795.21358
0.000360223493771628,-0.00588611047714949,1713350795.30898
0.000361665937816724,-0.00588990887627006,1713350795.31023
0.000320965278660879,-0.00589591916650534,1713350795.33682
0.000350366870407015,-0.00589789031073451,1713350795.36092
0.000304329238133505,-0.00591058377176523,1713350795.39253
0.000234154882491566,-0.0059120743535459,1713350795.39371
0.000259108957834542,-0.00592380622401834,1713350795.4404
0.000273485202342272,-0.00593520142138004,1713350795.44144
0.000170303203049116,-0.00590048683807254,1713350795.46453
0.000206604425329715,-0.00594573095440865,1713350795.46575
0.000289664487354457,-0.00599169684574008,1713350795.49667
0.000323681859299541,-0.00599450943991542,1713350795.49795
0.000136814735014923,-0.00598364323377609,1713350795.52034
0.000231101745157503,-0.00597395468503237,1713350795.52152
0.000376306619727984,-0.00590979028493166,1713350795.5524
0.000256680883467197,-0.0059518376365304,1713350795.55452
0.000197324770851992,-0.00598200829699636,1713350795.57626
0.000162490032380447,-0.00595527514815331,1713350795.57731
0.000361305312253535,-0.0059607564471662,1713350795.62475
0.000125732040032744,-0.0059749404899776,1713350795.62587
0.000264349801000208,-0.0059683290310204,1713350795.68455
0.000395971786929294,-0.00593967270106077,1713350795.68578
0.000166913494467735,-0.00595878530293703,1713350795.70832
0.000289183692075312,-0.00596941122785211,1713350795.70926
0.000358708930434659,-0.00595981907099485,1713350795.73644
0.000156167370732874,-0.00594851979985833,1713350795.73745
0.000421887496486306,-0.00589863583445549,1713350795.78427
0.000205258154892363,-0.00593527359887958,1713350795.78554
0.00032510026358068,-0.00593493692576885,1713350795.81629
0.000354333547875285,-0.00589166395366192,1713350795.81691
0.000254974002018571,-0.00591375725343823,1713350795.86925
0.000272451463388279,-0.00590462191030383,1713350795.87007
0.000401693425374106,-0.00587985990568996,1713350795.90048
0.000286875787423924,-0.00588183151558042,1713350795.90156
0.000177034555235878,-0.00590512668713927,1713350795.92446
0.000389120221370831,-0.0058752684853971,1713350795.92551
0.000260383123531938,-0.00590048683807254,1713350795.96431
0.000284111127257347,-0.00588911585509777,1713350795.96548
0.000294713012408465,-0.00587639817968011,1713350796.02037
0.000291299249511212,-0.00587485963478684,1713350796.02164
0.00032827359973453,-0.00587880238890648,1713350796.06439
0.000279303028946742,-0.0058906301856041,1713350796.06552
0.000314233941026032,-0.00589849147945643,1713350796.09676
0.000321878818795085,-0.00586017081514001,1713350796.09792
0.000325941684423015,-0.00583072099834681,1713350796.14092
0.000353179610101506,-0.0057619409635663,1713350796.14169
0.000392894580727443,-0.00591394957154989,1713350796.16479
0.000432681699749082,-0.00602020882070065,1713350796.16646
0.000454702822025865,-0.00595996296033263,1713350796.21326
0.000460280221886933,-0.00595260690897703,1713350796.2145
0.000464030570583418,-0.00594520242884755,1713350796.26071
0.000457154965260997,-0.00593113852664828,1713350796.26274
0.000445158744696528,-0.00592640275135636,1713350796.31299
0.000442826800281182,-0.00589796248823404,1713350796.3145
0.000436792615801096,-0.00593811040744185,1713350796.34133
0.00046083316556178,-0.00591430999338627,1713350796.3427
0.0004635737859644,-0.00598943699151278,1713350796.36472
0.000457227084552869,-0.00596227077767253,1713350796.36598
0.000437129201600328,-0.00591693073511124,1713350796.46434
0.000415709073422477,-0.00590491015464067,1713350796.4656
0.00040147706749849,-0.00590536696836352,1713350796.49241
0.000392558024032041,-0.00593241257593036,1713350796.49363
0.0003967170487158,-0.00590815581381321,1713350796.52097
0.000390250119380653,-0.00590957421809435,1713350796.52193
0.000386644038371742,-0.00592392636463046,1713350796.54075
0.000388783664675429,-0.00593197997659445,1713350796.54182
0.000377628835849464,-0.00592928752303124,1713350796.56908
0.000367243337677792,-0.00591642549261451,1713350796.5701
0.000365127780241892,-0.00589947728440166,1713350796.6164
0.000360752397682518,-0.00589666422456503,1713350796.61749
0.000378061580704525,-0.00589296221733093,1713350796.67635
0.000346929067745805,-0.00589601509273052,1713350796.67725
0.000380970479454845,-0.00587555672973394,1713350796.68865
0.000372676498955116,-0.00588820222765207,1713350796.68956
0.000374768016627058,-0.00586666166782379,1713350796.74076
0.000358420453267172,-0.00585810327902436,1713350796.74193
0.000381307065254077,-0.00584209244698286,1713350796.80849
0.000354790332494304,-0.00585185270756483,1713350796.80963
0.000370104156900197,-0.00582701899111271,1713350796.83265
0.000310074916342273,-0.00584670808166266,1713350796.8339
0.000250406301347539,-0.00584928039461374,1713350796.85624
0.000374383380403742,-0.00585428066551685,1713350796.85712
0.000324907945469022,-0.00587284006178379,1713350796.88473
0.000276514329016209,-0.00586562789976597,1713350796.88596
0.000207590084755793,-0.00587829761207104,1713350796.96052
0.000327696645399556,-0.00587067659944296,1713350796.9617
0.000245670322328806,-0.00588324991986156,1713350797.0207
0.000181794588570483,-0.00589474104344845,1713350797.02207
0.000184006319614127,-0.0058981548063457,1713350797.03416
0.000200161564862356,-0.00590188102796674,1713350797.03456
0.000236270454479381,-0.00590592017397285,1713350797.13685
0.000139170704642311,-0.00591856520622969,1713350797.13821
0.000118111187475733,-0.00593267707154155,1713350797.18867
0.000109817199700046,-0.00593435997143388,1713350797.18984
0.000165951874805614,-0.00593762937933207,1713350797.20035
9.99365365714766E-05,-0.00595510704442859,1713350797.2015
5.68799259781372E-05,-0.00598917249590158,1713350797.21641
0.000192420498933643,-0.00599398044869304,1713350797.21766
-0.000158691618707962,-0.00601467955857515,1713350797.25679
0.000120827768114395,-0.00599628826603293,1713350797.25796
6.63999817334115E-05,-0.00598922045901418,1713350797.28824
-7.38765884307213E-05,-0.00602172315120697,1713350797.28889
0.000127799532492645,-0.00600301986560226,1713350797.31643
0.000124962738482282,-0.00597693584859371,1713350797.31758
0.000117462092021015,-0.00597460381686688,1713350797.34442
0.000147536818985827,-0.00598085438832641,1713350797.34602
7.75547887315042E-05,-0.00598789844661951,1713350797.3684
-0.000148931168951094,-0.00602946430444717,1713350797.36988
0.000108855580037925,-0.00598655175417662,1713350797.4246
5.70962911297101E-05,-0.00597710395231843,1713350797.42567
0.000110081644379534,-0.00596900237724185,1713350797.44896
0.00014222385652829,-0.00597265642136335,1713350797.44979
-2.26461907004705E-05,-0.00596847338601947,1713350797.50069
5.37786945642438E-05,-0.00597917148843408,1713350797.52448
7.16408158041304E-06,-0.00596231920644641,1713350797.55284
7.17610237188637E-05,-0.00592063274234533,1713350797.55412
0.000105994753539562,-0.00594344735145569,1713350797.57649
3.99072996515315E-06,-0.00596198253333569,1713350797.57789
0.000141622833325528,-0.00592060852795839,1713350797.62841
3.69743538612965E-05,-0.0059393122792244,1713350797.62961
1.31261367641855E-05,-0.00595020269975066,1713350797.65229
0.000113014590169769,-0.00593024911358953,1713350797.65314
3.92582078347914E-05,-0.00596210267394781,1713350797.70488
0.00010279736306984,-0.00592236360535026,1713350797.70563
0.000108567088318523,-0.00592842185869813,1713350797.73265
3.47626264556311E-05,-0.00595409702509642,1713350797.73369
7.67133751651272E-05,-0.00596323283389211,1713350797.78459
6.15678291069344E-05,-0.00598058989271522,1713350797.78581
7.58719543227926E-05,-0.00598186394199729,1713350797.80497
7.1785063482821E-05,-0.00597477192059159,1713350797.80597
8.35889659356326E-05,-0.00598700856789947,1713350797.86466
7.81558046583086E-05,-0.00599434087052941,1713350797.86612
7.53190179239027E-05,-0.0059939562343061,1713350797.88515
9.0416484454181E-05,-0.00595138082280755,1713350797.88609
0.000124457888887264,-0.00599657697603107,1713350797.93246
0.000138978371978737,-0.00603278214111924,1713350797.93345
0.000163668009918183,-0.00600679405033588,1713350798.04463
0.000162177500897087,-0.00599756231531501,1713350798.04578
0.000172154323081486,-0.00599265843629837,1713350798.06899
0.000169750273926184,-0.00596111686900258,1713350798.07025
0.000177202848135494,-0.00599232176318765,1713350798.11283
0.000169557955814526,-0.00597763294354081,1713350798.12824
0.000179294365807436,-0.00599821144714952,1713350798.21639
0.00018609783728607,-0.0059863836504519,1713350798.21764
0.000205161995836534,-0.00595654919743538,1713350798.24092
0.000195593864191324,-0.00598234497010708,1713350798.24194
0.000201075104996562,-0.00595724675804377,1713350798.27624
0.000210138387046754,-0.00594967370852828,1713350798.27744
0.000214658008189872,-0.00596111686900258,1713350798.30498
0.000223120281589217,-0.00596114108338952,1713350798.30594
0.000227207172429189,-0.00597183918580413,1713350798.33287
0.000231414262088947,-0.0059658051468432,1713350798.33378
0.000227663942496292,-0.00597482034936547,1713350798.34887
0.000226966760237701,-0.00596864195540547,1713350798.34993
0.000232351841987111,-0.00595926586538553,1713350798.36886
0.000235789644648321,-0.00594892865046859,1713350798.37093
0.00024206422676798,-0.0059452741406858,1713350798.42055
0.000247497402597219,-0.00594734167680144,1713350798.42213
0.000253651756793261,-0.00595101993530989,1713350798.45244
0.000246319395955652,-0.0059537123888731,1713350798.4538
0.000265239301370457,-0.00593397533521056,1713350798.46046
0.000262690999079496,-0.00593746127560735,1713350798.46168
0.000255046121310443,-0.00593202793970704,1713350798.49671
0.000274855527095497,-0.00591676216572523,1713350798.49781
0.000278052932117134,-0.00591197842732072,1713350798.52447
0.000261993845924735,-0.00590072711929679,1713350798.52565
0.000293751392746344,-0.00588233629241586,1713350798.5645
0.000289832794805989,-0.00587293645367026,1713350798.56555
0.000269422365818173,-0.00586630124598742,1713350798.61689
0.00025913302670233,-0.00587195064872503,1713350798.64831
0.000304882152704522,-0.00585382431745529,1713350798.65667
0.000129794891108759,-0.0058789225295186,1713350798.65788
0.000325340661220253,-0.0058702677488327,1713350798.7128
0.000277331710094586,-0.0058687049895525,1713350798.71439
0.000238602384342812,-0.00589990988373756,1713350798.72845
0.000220692178118043,-0.00588534120470285,1713350798.72921
0.000248002237640321,-0.00590152060613036,1713350798.7824
0.000230164150707424,-0.00590781914070249,1713350798.78281
0.000185472788871266,-0.00590529479086399,1713350798.80844
0.000211821228731424,-0.00591111276298761,1713350798.80945
8.25792667455971E-05,-0.00592536898329854,1713350798.8405
0.000238987035118043,-0.00592354172840714,1713350798.84163
0.000186145916813985,-0.00594681315124035,1713350798.89673
6.14476302871481E-05,-0.00594553863629699,1713350798.89791
0.000168259764905088,-0.00600162521004677,1713350798.92873
9.64987411862239E-05,-0.00598936481401324,1713350798.9299
4.81051247334108E-05,-0.00600265897810459,1713350798.97669
0.000168163591297343,-0.00598027743399143,1713350798.97756
7.06311184330843E-05,-0.00602429546415806,1713350799.00496
0.000145878017065115,-0.00602905545383692,1713350799.00569
0.000238337946939282,-0.00604129210114479,1713350799.05284
-5.72164935874753E-06,-0.00606324151158333,1713350799.05397
0.000161143761943094,-0.00597251206636429,1713350799.12462
9.83258178166579E-06,-0.00606059702113271,1713350799.12565
9.8349861218594E-05,-0.00603037793189287,1713350799.15278
7.56555891712196E-05,-0.00604718225076795,1713350799.15379
0.000179654976818711,-0.00604888889938593,1713350799.1924
8.16416868474335E-05,-0.00606761686503887,1713350799.19362
-5.64471956749912E-05,-0.00609425362199545,1713350799.22451
0.000171433115610853,-0.00601917505264282,1713350799.22558
-3.95466922782361E-05,-0.00606641452759504,1713350799.25273
0.000142824865179136,-0.00600059144198895,1713350799.25395
8.59689826029353E-05,-0.00603381544351578,1713350799.2968
3.11805852106772E-05,-0.00603896053507924,1713350799.29788
0.000130924803670496,-0.00604653311893344,1713350799.37256
7.28909290046431E-05,-0.00601840578019619,1713350799.37365
0.000118904528790154,-0.00600991956889629,1713350799.43667
0.000172635132912546,-0.00603905646130443,1713350799.43812
0.000130155502120033,-0.00599852437153459,1713350799.45677
-1.44724072015379E-05,-0.00602355040609837,1713350799.458
0.000156143330968916,-0.00599131220951676,1713350799.48855
8.82528329384513E-05,-0.00601559272035956,1713350799.48969
0.000108494969026651,-0.00598878785967827,1713350799.49657
0.000106595769466367,-0.00600071204826236,1713350799.49727
0.000131333479657769,-0.00600438984110951,1713350799.53279
0.000115130162157584,-0.00600573653355241,1713350799.5341
4.73117870569695E-05,-0.00600215420126915,1713350799.58117
0.000221605718252249,-0.00600268319249153,1713350799.58212
0.000149604296893813,-0.00596808874979615,1713350799.60095
0.000191939689102583,-0.00599544681608677,1713350799.60213
0.000178476984729059,-0.00598643161356449,1713350799.64883
0.000210811514989473,-0.00599941378459334,1713350799.64994
0.000239155328017659,-0.00593948038294911,1713350799.69691
0.000274975725915283,-0.00589332263916731,1713350799.69813
0.00030913733644411,-0.00597616657614708,1713350799.75631
0.000325821485603228,-0.00597496423870325,1713350799.75707
0.000338995683705434,-0.00596025167033076,1713350799.7767
0.000340967031661421,-0.00600811652839184,1713350799.77791
0.000365103711374104,-0.00599366798996925,1713350799.81277
0.00036822899710387,-0.00599143235012889,1713350799.814
0.0003663778770715,-0.00594945717602968,1713350799.85663
0.000364911393262446,-0.00592493591830134,1713350799.8577
0.000382653321139514,-0.00597977265715599,1713350799.9128
0.000393952388549224,-0.00597907556220889,1713350799.91466
0.000393904309021309,-0.00599489407613874,1713350799.9369
0.000392798421671614,-0.0060012168250978,1713350799.93828
0.000390875182347372,-0.00598448468372226,1713350799.98482
0.000386644038371742,-0.00597167108207941,1713350799.9866
0.000390153960324824,-0.00595142878592014,1713350800.03649
0.000384432321880013,-0.00595751078799367,1713350800.03759
0.000383494741981849,-0.00594883225858212,1713350800.0444
0.000389120221370831,-0.00594777474179864,1713350800.04552
0.00039000972174108,-0.00594710139557719,1713350800.08493
0.000393086927942932,-0.00594400009140372,1713350800.0862
0.000389408727642149,-0.00594238936901093,1713350800.13286
0.000386139203328639,-0.0059408750385046,1713350800.13407
0.00038604304427281,-0.00593515345826745,1713350800.18854
0.000388110522180796,-0.00592440692707896,1713350800.18934
0.000397173804230988,-0.00593960098922253,1713350800.21255
0.000380201177904382,-0.00592863839119673,1713350800.21381
0.000388615386327729,-0.00591474305838347,1713350800.27649
0.000395563081838191,-0.00589995784685016,1713350800.27774
0.00038604304427281,-0.00589454872533679,1713350800.31632
0.000381066638510674,-0.00588421151041985,1713350800.31728
0.000372123555280268,-0.00587062863633037,1713350800.34418
0.00039222146733664,-0.00585762271657586,1713350800.34506
0.000404434045776725,-0.0058444244787097,1713350800.36821
0.000396140065276995,-0.00584031315520406,1713350800.36941
0.000399770186049864,-0.00582754798233509,1713350800.40475
0.000399337470298633,-0.00581617653369904,1713350800.40711
0.000410155713325366,-0.00580668076872826,1713350800.45284
0.00041003551450558,-0.00582079263404012,1713350800.45379
0.000406741950428113,-0.00581925362348557,1713350800.48077
0.000407583371270448,-0.0058170179836452,1713350800.48198
0.000388086482416838,-0.00582920666784048,1713350800.52432
0.000412583787692711,-0.00582923041656613,1713350800.52505
0.00036416613147594,-0.00583738042041659,1713350800.57273
0.000379624223569408,-0.00584661215543747,1713350800.57443
0.000386475760024041,-0.00585096329450607,1713350800.62026
0.000379912700736895,-0.0058627431280911,1713350800.6213
0.00033947650808841,-0.00588154280558229,1713350800.66844
0.000266200921032578,-0.00589652033522725,1713350800.66931
0.000317431316943839,-0.00591596914455295,1713350800.6929
0.000296564132440835,-0.00590142421424389,1713350800.69434
0.000312647258397192,-0.00596457906067371,1713350800.72873
0.000140613134135492,-0.00598143134266138,1713350800.72987
0.000190016449778341,-0.00599722610786557,1713350800.78046
0.000274759368039668,-0.00600114464759827,1713350800.7815
0.000187973011634313,-0.0059946053661406,1713350800.80437
0.000233265382121317,-0.00601751636713743,1713350800.82827
0.000289664487354457,-0.0060165305621922,1713350800.84082
0.000320003658998758,-0.00599705753847957,1713350800.84197
0.000215018619201146,-0.00601828563958406,1713350800.90885
0.000339596706908196,-0.00599801912903786,1713350800.90994
0.000232015285291709,-0.00600109668448567,1713350800.9327
0.000359574391040951,-0.00599585566669703,1713350800.93371
0.000378782802727073,-0.00598419597372413,1713350800.9647
0.000316205259878188,-0.00598941277712584,1713350800.96586
0.000220475820242427,-0.0060103521682322,1713350801.04036
0.000179943468538113,-0.00600357260555029,1713350801.04152
0.000333658681483939,-0.00598522974178195,1713350801.06896
0.000203238756512292,-0.00601477548480034,1713350801.06992
0.000164653683896177,-0.00600143289193511,1713350801.0967
0.000337697507347912,-0.00597777729853988,1713350801.09801
0.000332456664182246,-0.00599696161225438,1713350801.14465
0.000285577611066401,-0.00598357105627656,1713350801.14571
0.000133977941004559,-0.005999437533319,1713350801.16855
0.000294664932880551,-0.00596847338601947,1713350801.16972
0.000246103038080037,-0.00598378712311387,1713350801.22042
0.000291780073894188,-0.00597349787130952,1713350801.2214
0.00021035474492237,-0.0059877778403461,1713350801.24435
0.000269566604401916,-0.00599453318864107,1713350801.24518
0.000196723762201145,-0.00598145555704832,1713350801.29636
0.00031019511516206,-0.00599068682640791,1713350801.29743
0.0003117817977909,-0.00598080642521381,1713350801.3204
0.000346832908689976,-0.0059788110665977,1713350801.32192
0.000330341106746346,-0.00596029963344336,1713350801.37269
0.000318825681461021,-0.00597756076604128,1713350801.39646
0.000351304450305179,-0.0059927785769105,1713350801.41678
0.000392894580727443,-0.005953015293926,1713350801.41795
0.000412511668400839,-0.00593481678515673,1713350801.44504
0.000412511668400839,-0.00570316193625331,1713350801.44605
0.000451866042567417,-0.00610574474558234,1713350801.50068
0.000479753070976585,-0.00597388250753284,1713350801.50185
0.00050035584717989,-0.00595981907099485,1713350801.55254
0.000498985522426665,-0.00596650224179029,1713350801.55351
0.000492638791911304,-0.00595575617626309,1713350801.57644
0.000476339308079332,-0.00595352007076144,1713350801.57748
0.000479200156405568,-0.00589046208187938,1713350801.60526
0.000476219109259546,-0.00592868635430932,1713350801.60602
0.000473791005788371,-0.00599374016746879,1713350801.65234
0.000476339308079332,-0.0060062650591135,1713350801.6535
0.000468958867713809,-0.00598330656066537,1713350801.67696
0.000467492383904755,-0.00596311222761869,1713350801.6781
0.000459126284113154,-0.00596344890072942,1713350801.73648
0.000448452279670164,-0.00597010832279921,1713350801.7379
0.0004595109494403,-0.00594123546034098,1713350801.78887
0.000464583485154435,-0.00595313543453813,1713350801.7899
0.00046489603118971,-0.00593265285715461,1713350801.84453
0.000460905284853652,-0.00594964949414134,1713350801.84519
0.000464150769403204,-0.00594625994563103,1713350801.8603
0.000452971900813282,-0.00594849558547139,1713350801.8615
0.000447971484391019,-0.00593498488888145,1713350801.89251
0.000438379298429936,-0.00593125866726041,1713350801.89358
0.000437441718531773,-0.00591979129239917,1713350801.93295
0.000431070977356285,-0.00592176290228963,1713350801.96068
0.000441913260146976,-0.00591676216572523,1713350801.96165
0.000443451863247901,-0.00592974433675408,1713350801.9627
0.000451769883511588,-0.00595832848921418,1713350802.01653
0.000453500804724172,-0.00588885135948658,1713350802.01756
0.000463718024548143,-0.00590464565902948,1713350802.04078
0.000454438384622335,-0.00592036824673414,1713350802.04192
0.000456097186543047,-0.00590495858341455,1713350802.08085
0.000469295424409211,-0.00592313287779689,1713350802.08199
0.000462179450551048,-0.00590430945158005,1713350802.13236
0.000433330773375928,-0.00589079828932881,1713350802.13303
0.000479512673337013,-0.00585848791524768,1713350802.18427
0.000482109055155888,-0.00584526546299458,1713350802.18505
0.00048297451576218,-0.00582793261855841,1713350802.22096
0.000491076149046421,-0.00581942219287157,1713350802.22211
0.000517208245582879,-0.00580300251021981,1713350802.25673
0.00050670251948759,-0.00580153614282608,1713350802.2581
0.000505476433318108,-0.00579586252570152,1713350802.28517
0.000462756404886022,-0.0058115366846323,1713350802.28707
0.000467612611828372,-0.00581490248441696,1713350802.321
0.000486244010971859,-0.00582663435488939,1713350802.32221
0.000482229253975675,-0.00582997594028711,1713350802.37286
0.000436888774856925,-0.00582591304555535,1713350802.37458
0.000458429101854563,-0.00583442347124219,1713350802.40502
0.000399433629354462,-0.00585632445290685,1713350802.40625
0.000400876044295728,-0.00585925718769431,1713350802.46474
0.000498745124787092,-0.00586779182776809,1713350802.46599
0.000417247676523402,-0.00589594338089228,1713350802.53233
0.000419747870182619,-0.00589808262884617,1713350802.53456
0.000556634739041328,-0.00589736131951213,1713350802.5526
0.000372243754100054,-0.0059139016084373,1713350802.55407
0.000449149461928755,-0.00591527158394456,1713350802.57648
0.000406405364628881,-0.00592875853180885,1713350802.57741
0.000379816541681066,-0.00589483743533492,1713350802.6408
0.000544253853149712,-0.00589250540360808,1713350802.64215
0.00042150283115916,-0.00594657240435481,1713350802.66474
0.000315748504363,-0.00593993719667196,1713350802.66603
0.000548028212506324,-0.00591625738888979,1713350802.69677
0.000524901202879846,-0.00591892609372735,1713350802.69825
0.000353972951415926,-0.0059571024030447,1713350802.7485
0.000343827850883827,-0.00590719422325492,1713350802.75001
0.000547691655810922,-0.00592277245596051,1713350802.77299
0.000344116328051314,-0.0059068575501442,1713350802.77383
0.000547956093214452,-0.00587952323257923,1713350802.82447
0.000387269101338461,-0.00592527259141207,1713350802.82535
0.000520405650604516,-0.00587824918329716,1713350802.84871
0.000375296920537949,-0.00590486219152808,1713350802.8509
0.000333442323608324,-0.00591486319899559,1713350802.8965
0.000389673165045679,-0.00586610892787576,1713350802.89801
0.00035861277137883,-0.00589214451611042,1713350802.93242
0.000415564834838733,-0.00591652188450098,1713350802.93425
0.000288198032649234,-0.00589721743017435,1713350803.0124
0.00014720024773851,-0.00588276889175177,1713350803.01362
0.000443740340415388,-0.0058912793174386,1713350803.03674
0.00014143051521387,-0.00588942831382155,1713350803.03806
0.000352698814822361,-0.00585776660591364,1713350803.05634
0.000106379404314794,-0.00587447499856353,1713350803.05743
0.000308175716781989,-0.00585259823128581,1713350803.0844
0.000387124862754717,-0.00586291123181582,1713350803.08558
0.000285217014607042,-0.00583459157496691,1713350803.13239
0.000224202100071125,-0.00587630225345492,1713350803.13307
0.000323609740007669,-0.0058316346257925,1713350803.21287
0.000317359197651967,-0.00582963926717639,1713350803.21444
0.000320364284561947,-0.00582747580483556,1713350803.24103
0.000220067129703239,-0.00585740618407726,1713350803.24205
0.000294328376185149,-0.00583531288430095,1713350803.27635
0.000178933754796162,-0.0058586080558598,1713350803.27731
0.000329908361891285,-0.00582127319648862,1713350803.30028
0.000272932287771255,-0.00582701899111271,1713350803.30131
0.000367531814845279,-0.00583310099318624,1713350803.32453
0.000330942100845277,-0.00585367996245623,1713350803.32525
0.000343322986736894,-0.00580064626410604,1713350803.3648
0.000353011331753805,-0.00579780945554376,1713350803.36603
0.000392437825212255,-0.00578516442328692,1713350803.41312
0.000439413037383929,-0.0058581274934113,1713350803.41431
0.000500067311804742,-0.00590281886979938,1713350803.4447
0.000506918877363205,-0.00589339481666684,1713350803.44588
0.000517208245582879,-0.00591301172971725,1713350803.52049
0.00049867300549522,-0.00591757986694574,1713350803.52168
0.000472516869194806,-0.0058442079462111,1713350803.54881
0.000481964816572145,-0.00586884934455156,1713350803.54995
0.000467155827209353,-0.0058494727127254,1713350803.57235
0.000479512673337013,-0.00583117781206965,1713350803.57373
0.000490835751406848,-0.00593109056353569,1713350803.60874
0.000493287923745811,-0.0059200800023973,1713350803.60968
0.000480546412291005,-0.00591474305838347,1713350803.65298
0.000472444749902934,-0.00582548044621944,1713350803.65414
0.000438235059846193,-0.00579879526048899,1713350803.68077
0.000446553080109879,-0.00583298085257411,1713350803.6819
0.000466049968963489,-0.00586483487859368,1713350803.72849
0.000445952056907117,-0.00607292959466577,1713350803.72947
0.000430902699008584,-0.00591130508109927,1713350803.7564
0.000426695594796911,-0.00587877817451954,1713350803.75751
0.000418930489104241,-0.00587928295135498,1713350803.80483
0.000429580453783274,-0.0058659166097641,1713350803.80572
0.000431672000559047,-0.00585928140208125,1713350803.85273
0.000429460254963487,-0.00585211720317602,1713350803.8541
0.000444533681729808,-0.00585209298878908,1713350803.92482
0.000435927155194804,-0.00584904011338949,1713350803.92593
0.000440759322373197,-0.00585925718769431,1713350803.98486
0.000448043603682891,-0.00584810227155685,1713350803.98594
0.000456289504654706,-0.00583146652206779,1713350804.00854
0.000458837806945667,-0.0058339424431324,1713350804.00949
0.000456145266070962,-0.00581971043720841,1713350804.06084
0.000456409703474492,-0.00581547943875194,1713350804.06255
0.000461578427348286,-0.00580559857189655,1713350804.0815
0.000462227530078962,-0.00579874729737639,1713350804.08224
0.000411069253459573,-0.00580663233995438,1713350804.10855
0.00049037899589166,-0.00579838640987873,1713350804.10951
0.000461650546640158,-0.00580098293721676,1713350804.13279
0.000459078204585239,-0.00579223223030567,1713350804.15228
0.000485017953906208,-0.00579567020758987,1713350804.24896
0.000468646350782365,-0.00579838640987873,1713350804.25005
0.000470305152703077,-0.00580439670011401,1713350804.27286
0.000475497887236998,-0.00580348307266831,1713350804.27385
0.000486292090499774,-0.00580324279144406,1713350804.30834
0.000455424044048414,-0.00581228220835328,1713350804.30958
0.000370032037608325,-0.00581502262502909,1713350804.33393
0.000416742812376469,-0.0058172345161438,1713350804.33474
0.000305988040054217,-0.00583721231669188,1713350804.36102
0.000510212441440672,-0.00580757018178701,1713350804.36223
0.000399121083319187,-0.00579295353963971,1713350804.3803
-7.56555891712196E-05,-0.00593190779909492,1713350804.38113
0.000452707463409752,-0.00580504583194852,1713350804.40447
0.000155398069182411,-0.00586243066936731,1713350804.40631
0.000327913003275171,-0.00589469308033586,1713350804.43696
0.000248194555751979,-0.00586791196838021,1713350804.43851
9.61621751116581E-08,-0.00589940510690212,1713350804.49264
0.000544951006304473,-0.00583738042041659,1713350804.49371
0.000171096544363536,-0.00585401663556695,1713350804.5167
0.000336158904246986,-0.00582295609638095,1713350804.51792
