biceps,triceps,t
-0.00113367987796664,0.00225408934056759,1713350763.7049
-0.00114226236473769,0.00219624792225659,1713350763.70609
-0.00114928220864385,0.00225582020357251,1713350763.72892
-0.00115235941484571,0.00232022488489747,1713350763.73007
-0.00112579460255802,0.00222653895616531,1713350763.75263
-0.00110903836321086,0.00226281606592238,1713350763.75313
-0.00111622642725706,0.00224541081115603,1713350763.77275
-0.00117529404815286,0.00224151625297964,1713350763.7739
-0.000996456481516361,0.00228796247392893,1713350763.83269
-0.00113497802522033,0.00225130072794855,1713350763.83389
-0.00113990635145456,0.00226122932508588,1713350763.86051
-0.00113692530430853,0.00226988410577178,1713350763.86148
-0.00114642141852528,0.00226897047832608,1713350763.88433
-0.00113492994569242,0.0023018098436296,1713350763.88538
-0.00114683003630489,0.00230053579434752,1713350763.90476
-0.00114178156945854,0.00226904265582561,1713350763.90579
-0.00114675797522068,0.00229587196372449,1713350763.94074
-0.00114026700612158,0.00219288212247193,1713350763.94176
-0.00112757354509085,0.00225935433991253,1713350764.01267
-0.00112101051490754,0.00224072276614606,1713350764.03663
-0.0011173322563991,0.00228243321180344,1713350764.06838
-0.00111610628664494,0.00222586584277451,1713350764.0691
-0.00111846218351275,0.00221860548481345,1713350764.09226
-0.00109927786979824,0.00225363252684474,1713350764.09302
-0.00110540818423033,0.0022476464509964,1713350764.12046
-0.00108569499570876,0.00225101225078106,1713350764.12147
-0.00114211812615395,0.002215864835307,1713350764.14073
-0.00112935260403901,0.00224553095176816,1713350764.14209
-0.00117361126467586,0.00225524324923754,1713350764.17251
-0.00101910263765603,0.00229289080016315,1713350764.1738
-0.00107711250893772,0.00221084035001695,1713350764.20832
-0.00108752201776952,0.00223052967339754,1713350764.20936
-0.00109367643017322,0.00223584263585508,1713350764.26111
-0.00108172826003283,0.00222548120655119,1713350764.26157
-0.00109709019307047,0.0022222837433219,1713350764.28523
-0.00109341193456203,0.00224329507909715,1713350764.28567
-0.0010874739382416,0.00224137189798057,1713350764.33791
-0.00109386874828488,0.00223384727723896,1713350764.33832
-0.00109742674976587,0.00223646755330265,1713350764.37265
-0.0010900943307206,0.00226132548414171,1713350764.37369
-0.00109528715256602,0.00221812468953431,1713350764.42078
-0.00108793075196445,0.00223858328536153,1713350764.42222
-0.00108706532046199,0.00223805429413915,1713350764.44836
-0.00108903658110648,0.0022398813161999,1713350764.44911
-0.00110411003697664,0.00223656394518912,1713350764.49676
-0.00108624785207212,0.00223896792158484,1713350764.49776
-0.00110079243313521,0.00223865546286106,1713350764.51693
-0.00105158146470785,0.00224175653420389,1713350764.54831
-0.00107603066135198,0.00223442423157394,1713350764.56029
-0.0010845169890672,0.00223548198118806,1713350764.56109
-0.00108016561716795,0.0022359627764672,1713350764.60461
-0.00107018882408738,0.00223644357174635,1713350764.60573
-0.00109350809361786,0.00222778902389109,1713350764.65728
-0.00106840976513922,0.00223098648712039,1713350764.65791
-0.00106489984318614,0.00222961604595184,1713350764.68835
-0.00104047474451363,0.00222846213728189,1713350764.68931
-0.00106990034691989,0.00222555315122008,1713350764.75637
-0.000970805180259049,0.00223502516746521,1713350764.7582
-0.00102549744769931,0.00222665909677744,1713350764.7725
-0.00103304616641253,0.00222560134716332,1713350764.77369
-0.00106013985350728,0.00224517029710114,1713350764.80088
-0.00101677072234452,0.00220855651423335,1713350764.80318
-0.00101919879671186,0.00221423013135791,1713350764.87234
-0.00103645992930979,0.00222658691927791,1713350764.87367
-0.00100991921499372,0.00222336547449231,1713350764.90093
-0.00101773231290281,0.00221740361303091,1713350764.90219
-0.00102282897569239,0.00222033634781837,1713350764.92076
-0.00102386262733489,0.00221569673158228,1713350764.92194
-0.00101922289468348,0.00221927859820425,1713350764.97308
-0.00103374337777495,0.00222733221016824,1713350764.97398
-0.00102150673046708,0.00221245107240975,1713350765.02041
-0.00103472894988954,0.00221091252751648,1713350765.02107
-0.00103064207360148,0.00220773927867413,1713350765.04453
-0.00102763704489917,0.0022067055106163,1713350765.0457
-0.0010163860861212,0.00221350905485451,1713350765.08909
-0.00103785423561931,0.00221507158130407,1713350765.09025
-0.0010384313063696,0.00220434949733317,1713350765.15699
-0.00106581347063184,0.00222863047383726,1713350765.15811
-0.00101333297789097,0.00219708937220275,1713350765.18488
-0.00104660505894572,0.00220141652971506,1713350765.18614
-0.00105251895729452,0.00220817187801003,1713350765.24437
-0.00103093055076897,0.00220495043322444,1713350765.24534
-0.0010884115472436,0.00222855829633772,1713350765.26503
-0.00100660161115229,0.00219853175804019,1713350765.26621
-0.00102434353902936,0.00220995093695819,1713350765.2968
-0.00103499344550073,0.00221620150841773,1713350765.29796
-0.00102903135120869,0.0021891319192946,1713350765.31682
-0.00103030551690608,0.0022021378390491,1713350765.31794
-0.00100095209199935,0.00221420614980161,1713350765.36053
-0.00102153071202338,0.00220047892071307,1713350765.36159
-0.00102763704489917,0.00219821906648576,1713350765.41228
-0.00104381632991135,0.00220793159678578,1713350765.41312
-0.00102465599775314,0.00220093573443592,1713350765.49264
-0.00105869746766984,0.00220886920578778,1713350765.4937
-0.00102826207876205,0.0022160813678056,1713350765.51649
-0.00104465777985752,0.00219692103564739,1713350765.51758
-0.00106826552655548,0.00220471015200019,1713350765.57225
-0.00105071591679007,0.00220240233466029,1713350765.57346
-0.00100299553014338,0.00222300505265594,1713350765.59642
-0.00109824410174042,0.00221023941412568,1713350765.59737
-0.00103920057881624,0.00220088777132332,1713350765.62892
-0.00101003935560584,0.00221475912258029,1713350765.62996
-0.0010517257032916,0.00218764133751392,1713350765.7325
-0.00104939378798008,0.00219393987208605,1713350765.73352
-0.00102335785049945,0.00221692281775177,1713350765.75662
-0.00103602721355855,0.00219615176320076,1713350765.7578
-0.00104576360899955,0.0022306980099529,1713350765.76525
-0.000979291507974267,0.00223625125363469,1713350765.76629
-0.00109218584839255,0.00218098214827478,1713350765.78865
-0.00104650889988989,0.00221723527647555,1713350765.78966
-0.00101482344325632,0.00220365240238607,1713350765.82044
-0.00101965561043471,0.00222538504749537,1713350765.82149
-0.000979868462309241,0.00222757272422314,1713350765.84462
-0.0010474945884198,0.00218975683674216,1713350765.84527
-0.00100410135928541,0.00221927859820425,1713350765.88082
-0.00100434175692499,0.00223632343113422,1713350765.8818
-0.00106812128797174,0.00222709192894399,1713350765.93708
-0.00106182275339961,0.00220665731467307,1713350765.93776
-0.000974868074990809,0.00222141831181943,1713350766.00077
-0.00097979640122503,0.00222730822861195,1713350766.00202
-0.000970059947576374,0.00222540902905166,1713350766.0406
-0.00101970368996263,0.00221415795385838,1713350766.0419
-0.000966958701610565,0.00222189910709858,1713350766.0688
-0.000974218943156302,0.00220838841050863,1713350766.07032
-0.00102145865093917,0.00221180217340589,1713350766.1205
-0.000969963788520545,0.00223730900324881,1713350766.12167
-0.000989797175861895,0.00218824227340519,1713350766.14518
-0.000997730647213757,0.00220843637362123,1713350766.14627
-0.000968449225183576,0.00217670295387506,1713350766.16829
-0.000997538329102099,0.00217417860403657,1713350766.16951
-0.000975084432866424,0.00218723271973431,1713350766.24451
-0.00104150839615613,0.00218050135299563,1713350766.24553
-0.00100217806175351,0.00219045416451991,1713350766.27669
-0.000982561032287777,0.00215434515848756,1713350766.27781
-0.000999197131022811,0.00215566740371287,1713350766.30027
-0.00100126455072314,0.0021712938323617,1713350766.30123
-0.00102831015828997,0.0021717504132539,1713350766.32835
-0.000994557281956077,0.00218247249722481,1713350766.32946
-0.000994100468233228,0.00216679810546339,1713350766.38458
-0.00100551976356655,0.00217136577703059,1713350766.38578
-0.00102270871866494,0.00216655782423913,1713350766.40853
-0.000971646630205214,0.00217124563641846,1713350766.40982
-0.000986695988103747,0.0021548259537667,1713350766.45271
-0.000978161580860615,0.00216290354728699,1713350766.45383
-0.000992225366644561,0.00216564419679344,1713350766.50051
-0.000995855429209769,0.00215691747143865,1713350766.50156
-0.000984748709015548,0.00215619639493525,1713350766.58064
-0.0010225644800812,0.00216242275200784,1713350766.58185
-0.000974844035226852,0.00215948978438973,1713350766.60888
-0.00101083272602409,0.00217047636397183,1713350766.61017
-0.00100576016120613,0.00217098114080727,1713350766.64045
-0.000968401145655662,0.00218220823444426,1713350766.64137
-0.000984412152320147,0.00218237633816898,1713350766.64852
-0.00100025488063693,0.00217665475793183,1713350766.64977
-0.00101172225549817,0.00217651063576341,1713350766.70044
-0.000991119421087205,0.00217345729470253,1713350766.70206
-0.000986287370324135,0.00217182259075344,1713350766.75295
-0.00100270705297589,0.00216802419163287,1713350766.79656
-0.000975541188381612,0.00217136577703059,1713350766.81285
-0.000972463982179761,0.00217271223664284,1713350766.81381
-0.000991431996226311,0.00216874550096691,1713350766.82444
-0.000987849896773696,0.00218252069316804,1713350766.82512
-0.0009920570300892,0.00218795379623771,1713350766.91657
-0.000994749600067735,0.00218127062544227,1713350766.91772
-0.000993884168565273,0.00217740004882216,1713350766.93671
-0.000993571593426168,0.00218338612467051,1713350766.93798
-0.000992345507256687,0.00218677590601146,1713350766.97661
-0.000985013204626739,0.00218463619239628,1713350766.97756
-0.000996528542600572,0.00218696822412312,1713350767.02438
-0.000989893451333046,0.00218333816155791,1713350767.02535
-0.000992369605228305,0.00218566996045411,1713350767.05261
-0.000987922074273229,0.00218932423740625,1713350767.05371
-0.00101203471422195,0.00219016568735242,1713350767.15254
-0.000989124062471092,0.00218088598921895,1713350767.15382
-0.000978690455667675,0.00218603061512113,1713350767.18452
-0.000998307601548731,0.00218444387428462,1713350767.18555
-0.000979628064669669,0.00217891461215913,1713350767.20091
-0.00101528025697917,0.00218576611950994,1713350767.20197
-0.000984388054348528,0.00217749620787799,1713350767.2609
-0.00100770744029433,0.00219946936704218,1713350767.26219
-0.000982080237008631,0.00218355446122587,1713350767.31247
-0.000980229116976261,0.00218098214827478,1713350767.3136
-0.00101052015088499,0.00220220978371799,1713350767.33688
-0.000963809434324503,0.00221283570863307,1713350767.33795
-0.00101064040791243,0.00218992517329752,1713350767.3648
-0.00101631390862167,0.00218081381171942,1713350767.38865
-0.000983114005066454,0.00218735286034644,1713350767.42429
-0.000968785781878978,0.00218677590601146,1713350767.4252
-0.00101893441751599,0.00219384371303022,1713350767.45251
-0.00102573784533888,0.00218381895683706,1713350767.45389
-0.000964001752436161,0.00217441911809146,1713350767.48832
-0.000962847785558552,0.00220218580216169,1713350767.4896
-0.00095510674873367,0.00219372357241809,1713350767.52037
-0.000964602746535093,0.00217227940447628,1713350767.52163
-0.000997682567685843,0.0021881943102926,1713350767.54086
-0.000999653828330338,0.00221300404518843,1713350767.54237
-0.000899981765542179,0.00217679911293089,1713350767.56063
-0.00095854455139488,0.00219220900908113,1713350767.56194
-0.00101138569880277,0.00221307622268796,1713350767.58845
-0.000974819995462894,0.00221261940896511,1713350767.58947
-0.000973521790001541,0.00218557380139828,1713350767.61231
-0.000905991881154478,0.00219677668064833,1713350767.6131
-0.000932148017454892,0.00220384472049773,1713350767.66844
-0.000943038379773498,0.00220730644650757,1713350767.66917
-0.000936763768550009,0.00217949156649411,1713350767.70094
-0.000935657939407975,0.00219180039130151,1713350767.70239
-0.000913516618311405,0.00218720850534737,1713350767.72058
-0.000946716580074281,0.00217646243982017,1713350767.72206
-0.00096003501676023,0.00219386792741716,1713350767.77307
-0.000923132814932615,0.00215393654070795,1713350767.77404
-0.000951548747252673,0.00217300071381032,1713350767.80047
-0.000940009253099561,0.00217576534487307,1713350767.80129
-0.000989773194305599,0.00217403448186815,1713350767.88842
-0.000976382638327777,0.0021733611356467,1713350767.90868
-0.000930897891521454,0.00218480452895164,1713350767.94098
-0.000956380856223404,0.00217112549580634,1713350767.94205
-0.00098419573623687,0.00218167924322188,1713350767.96941
-0.00092979206237942,0.00219232914969325,1713350767.97003
-0.000957078067585826,0.00212669861502945,1713350768.04052
-0.000895558332558721,0.00217629410326481,1713350768.04192
-0.000902818574104458,0.00216179783456027,1713350768.06843
-0.000972704379819334,0.00218843459151685,1713350768.06941
-0.000902818574104458,0.00216073985211551,1713350768.12904
-0.000899837526958436,0.00216932245530188,1713350768.13022
-0.00100547168403864,0.00216227862983942,1713350768.15636
-0.000966670224443078,0.00216360087506473,1713350768.15757
-0.000910583650693297,0.00216348050162196,1713350768.1845
-0.000900246202945709,0.00216093217022717,1713350768.18563
-0.000896399724297226,0.00216021109372377,1713350768.24051
-0.000908636371605098,0.00219026184640825,1713350768.24116
-0.000897217076271772,0.00212818896397948,1713350768.26891
-0.000903131091035903,0.00215069111436605,1713350768.27013
-0.00087695091497153,0.00216340855695307,1713350768.29669
-0.000911425042431802,0.00214194017462432,1713350768.2977
-0.000940321770031005,0.0021541768219322,1713350768.32438
-0.000893875490874052,0.00216090818867087,1713350768.32529
-0.00090817961608991,0.00215662899427116,1713350768.3886
-0.000942797982133925,0.00217706337571144,1713350768.38998
-0.000905823602806777,0.00215244595892727,1713350768.41248
-0.000906809291336685,0.00215686950832605,1713350768.41366
-0.000894981320016086,0.00216703861951828,1713350768.44061
-0.000921882688999176,0.00216872151941061,1713350768.46518
-0.000915007083676755,0.00215112371370196,1713350768.48439
-0.000915632175747305,0.00215698964893818,1713350768.48555
-0.000927748566027731,0.00217033224180341,1713350768.51648
-0.000926642736885697,0.0021488880738616,1713350768.51742
-0.000919839250855148,0.00215528276748955,1713350768.53653
-0.000919238256756216,0.00216292776167393,1713350768.53764
-0.000917675613891333,0.00215477799065411,1713350768.56062
-0.000949264853261411,0.00215410487726331,1713350768.56188
-0.000928830413613468,0.00214944081380963,1713350768.63691
-0.000924094405490905,0.0021596341393888,1713350768.63804
-0.000918468926101923,0.0021681203506887,1713350768.6929
-0.000913612777367234,0.00215787906199694,1713350768.694
-0.000937268661800772,0.00215706182643771,1713350768.71262
-0.000925440690480173,0.00216763955540955,1713350768.71365
-0.000933301984332502,0.00215831189416349,1713350768.76868
-0.000964746985118836,0.00216535571962595,1713350768.76978
-0.000897193036507815,0.00220136856660247,1713350768.78863
-0.000971983186900616,0.00215097959153354,1713350768.79015
-0.000948327302467078,0.00215953798033297,1713350768.82034
-0.000965660554356873,0.00217800098471344,1713350768.82114
-0.000938326411414892,0.00218264083378017,1713350768.87228
-0.00103727728128433,0.00222180294804275,1713350768.87297
-0.000954072980675846,0.0021596581209451,1713350768.89289
-0.000886206515133381,0.0021921128500253,1713350768.89414
-0.000837019586469978,0.00220382050611079,1713350768.92429
-0.000951236230321229,0.00221915845759213,1713350768.92492
-0.000925897445995361,0.00217956374399364,1713350768.99664
-0.00091055961092934,0.0021980267483741,1713350768.99785
-0.000888586568180472,0.00217679911293089,1713350769.07681
-0.000891904113814235,0.00220624869689345,1713350769.07803
-0.000891351199243218,0.00219771428965032,1713350769.09273
-0.000925248372368515,0.0021950697991997,1713350769.09386
-0.000938975543249399,0.00223259720951319,1713350769.14849
-0.000837067665997893,0.00220937398262322,1713350769.14964
-0.000898539321497083,0.00218884344212711,1713350769.18072
-0.000943206658121198,0.00224555493332446,1713350769.18181
-0.00089195225154981,0.00221372535452247,1713350769.20494
-0.0009230847354047,0.00222745235078037,1713350769.20619
-0.000931114249397069,0.00221216259524226,1713350769.22074
-0.000887168163899332,0.00221098470501602,1713350769.22194
-0.000914430129341781,0.00222346163354814,1713350769.24878
-0.000793530256487429,0.00224581942893565,1713350769.24976
-0.000881999440025538,0.00223670806735754,1713350769.32447
-0.000850025506224483,0.00221754773519933,1713350769.32535
-0.000938470649998635,0.00224932935088873,1713350769.35293
-0.000819085340481252,0.00220009428448975,1713350769.35409
-0.000840192951727659,0.00223954487591982,1713350769.38104
-0.000854136422276497,0.00225507514551282,1713350769.38202
-0.000888105714693666,0.00220591202378273,1713350769.40477
-0.000857454026117921,0.00216888962313533,1713350769.40583
-0.000858031038660556,0.00219355523586273,1713350769.47655
-0.000878970313351601,0.00218841060996056,1713350769.47827
-0.000862382352352142,0.00220110407099128,1713350769.48471
-0.000858583953231573,0.0021928099449724,1713350769.48611
-0.000902457919437438,0.00218345830217004,1713350769.56431
-0.000965396058745682,0.00220862869173288,1713350769.5652
-0.000885389163158834,0.00215771095827222,1713350769.6011
-0.000836490711662918,0.00220165704376996,1713350769.60223
-0.000926306180190295,0.0021733371540904,1713350769.60843
-0.000895173638127744,0.00217235158197582,1713350769.60952
-0.000877143233083189,0.00218167924322188,1713350769.6888
-0.000875532510690391,0.00220598420128226,1713350769.68982
-0.000930176698602736,0.00218917988240719,1713350769.70832
-0.000915007083676755,0.00218254467472434,1713350769.70938
-0.000870003190357238,0.00214552227407694,1713350769.71633
-0.000827355310320854,0.0021704041864723,1713350769.71769
-0.000973161193542182,0.00219841138459742,1713350769.77268
-0.000837909057736397,0.00215196516364813,1713350769.77394
-0.000860579311847687,0.00216965889558196,1713350769.79686
-0.000837957137264311,0.00217877025716007,1713350769.79806
-0.000866757705807686,0.00218377076089382,1713350769.86875
-0.000898371043149382,0.00214496930129826,1713350769.86971
-0.000853198871482164,0.00217465939931571,1713350769.89259
-0.000860675470903516,0.00217463541775942,1713350769.89376
-0.000862382352352142,0.00219187256880105,1713350769.94861
-0.000922002887818962,0.0021587444934994,1713350769.94934
-0.000863223802298307,0.00217526033520699,1713350769.97249
-0.000871349475346506,0.00217607780359685,1713350769.97317
-0.000880100240465254,0.00217879447154701,1713350770.02468
-0.00088719220366329,0.0021842997521162,1713350770.02589
-0.000860867789015174,0.00217941938899457,1713350770.07304
-0.000871782191097736,0.00217437092214823,1713350770.074
-0.000877071113791317,0.00216804817318916,1713350770.09637
-0.00088603823678568,0.00216542789712548,1713350770.09748
-0.000861108186654747,0.00216953875496984,1713350770.11683
-0.000868608884047717,0.00217396230436862,1713350770.11781
-0.000868392467964441,0.00217321701347828,1713350770.17696
-0.000872599601279944,0.00217432295903563,1713350770.17796
-0.000887144124135375,0.00218675192445517,1713350770.22035
-0.000870796560775489,0.0021736016497016,1713350770.2217
-0.000881470565218478,0.00218057329766452,1713350770.24026
-0.000890605966560543,0.00218389090150595,1713350770.24124
-0.000887600879650563,0.00216737505979836,1713350770.30085
-0.000904886052012444,0.00217009172774851,1713350770.30223
-0.000856035680044442,0.00217617396265268,1713350770.32829
-0.000861396722029895,0.00218292931094766,1713350770.32956
-0.000880941632203758,0.00218182359822094,1713350770.37722
-0.000894957280252129,0.00218054931610823,1713350770.37879
-0.000880701234564185,0.00217477953992784,1713350770.39634
-0.000902121362742037,0.0021943727042526,1713350770.39771
-0.000890052993781865,0.00216867332346737,1713350770.4645
-0.00087413820438087,0.00216312007978559,1713350770.46525
-0.00092229136498645,0.00219093495979905,1713350770.49253
-0.000864666188135743,0.00218461221083999,1713350770.49369
-0.000873320794198662,0.00219403603114188,1713350770.58084
-0.000904549495317042,0.00221014325506985,1713350770.58187
-0.000960083096288145,0.00220658537000418,1713350770.60475
-0.000889403920155019,0.00220773927867413,1713350770.60582
-0.00087625376181677,0.0021820398978889,1713350770.62109
-0.000895750650670379,0.00218583829700947,1713350770.64049
-0.000860867789015174,0.0022028109524399,1713350770.64153
-0.000855386548209935,0.00221843714825809,1713350770.64248
-0.000892601325176656,0.00218917988240719,1713350770.69635
-0.000863560358993709,0.00222165859304368,1713350770.69797
-0.000858343555592001,0.00227452395483851,1713350770.72482
-0.00090923736570403,0.00224478566087782,1713350770.72611
-0.000867719354573637,0.00221800454892218,1713350770.76856
-0.000823725189547986,0.00218083779327571,1713350770.76982
-0.000835577142424881,0.00222502439282835,1713350770.82107
-0.000908468093257397,0.00226012361235917,1713350770.82171
-0.000855723104905337,0.00219817110337317,1713350770.84503
-0.000814445491414517,0.0022576954215765,1713350770.84624
-0.000913516618311405,0.00232493691146374,1713350770.89288
-0.00078672677045688,0.00224548275582492,1713350770.89409
-0.000817065942101181,0.00226848968304694,1713350770.95274
-0.000810815370641649,0.00229029450565577,1713350770.95397
-0.000803843606263399,0.0022414680570364,1713350770.97672
-0.000773336156271398,0.00227913958951831,1713350770.97785
-0.000827788026072085,0.00227449974045157,1713350771.07662
-0.000840048713143915,0.00228447653353214,1713350771.07788
-0.000791607017163187,0.00226122932508588,1713350771.12424
-0.000815455219708383,0.00225853687152266,1713350771.12494
-0.000818388187326491,0.00225524324923754,1713350771.14849
-0.000857093429658562,0.00225005066022277,1713350771.14962
-0.000777038454543799,0.0022661576513201,1713350771.18049
-0.000814108934719116,0.00224872841499746,1713350771.18233
-0.000826970615889877,0.00224019400775433,1713350771.20482
-0.000835144426673651,0.0022522141225636,1713350771.22957
-0.000802136783022434,0.00225644535385072,1713350771.33258
-0.000826441741082817,0.00226130150258541,1713350771.33321
-0.000852694036439061,0.00222637061960995,1713350771.37335
-0.000851059274282306,0.0022128839045763,1713350771.37408
-0.000798410444986075,0.00224916101433337,1713350771.4006
-0.000883081287611276,0.00222997670061886,1713350771.40173
-0.000805526447948068,0.00220939796417952,1713350771.42472
-0.000827499548904598,0.00220040674321353,1713350771.4258
-0.000822234665974975,0.00222769286483526,1713350771.44465
-0.000812906946521252,0.00220680166967213,1713350771.44573
-0.000798362365458161,0.00221627368591726,1713350771.48031
-0.000860386993736029,0.00222576968371868,1713350771.48096
-0.000803891685791314,0.00220771506428719,1713350771.49651
-0.000820022891275585,0.00220242631621659,1713350771.49753
-0.000873416953254491,0.0021959594450891,1713350771.56518
-0.000822258705738932,0.00219006952829659,1713350771.56636
-0.000836731109302491,0.00219982978887856,1713350771.62517
-0.00084988126764074,0.00218824227340519,1713350771.62652
-0.000802737777121365,0.00220418116077781,1713350771.64446
-0.000810286495834589,0.00218845880590379,1713350771.64575
-0.000822691421490163,0.00218987721018493,1713350771.66498
-0.000832331657875329,0.00219497364014387,1713350771.6661
-0.000829542987048626,0.00221067224629223,1713350771.72448
-0.000823677110020071,0.00219939718954265,1713350771.72516
-0.000843390298541635,0.00219571893103421,1713350771.74453
-0.000835048267617822,0.0021966805215925,1713350771.74704
-0.000847573392093182,0.00220062327571213,1713350771.77674
-0.000865940353833139,0.0022012242116034,1713350771.83249
-0.00082968722563237,0.0022113211452961,1713350771.85256
-0.000848991796374321,0.00221177795901895,1713350771.85359
-0.000850362062919885,0.00220882100984454,1713350771.93292
-0.000853703706525266,0.00220735464245081,1713350771.93389
-0.00084290950326249,0.00219776248559356,1713350771.95665
-0.000843510555569083,0.00221430230885744,1713350771.95786
-0.000850722717586905,0.00220430153422058,1713350771.98465
-0.000873056356795132,0.00220966245979071,1713350771.98561
-0.000842428707983345,0.00221076840534806,1713350772.00877
-0.000859906198456883,0.00221293186768889,1713350772.00979
-0.000857357867062092,0.00221884599886835,1713350772.04105
-0.000884836248587817,0.00220709014683962,1713350772.04218
-0.000830961391329765,0.0022142541129142,1713350772.06892
-0.000836370512843132,0.00221372535452247,1713350772.07003
-0.000858656072523445,0.00220134435221553,1713350772.09688
-0.000855771184433252,0.00222146627493203,1713350772.0982
-0.00082456658128649,0.00221843714825809,1713350772.12424
-0.000862310233060271,0.00222906307317317,1713350772.1252
-0.000853703706525266,0.00221632164902985,1713350772.14889
-0.000846563663799316,0.00223692436702549,1713350772.14995
-0.000859834079165012,0.00223187590017915,1713350772.17295
-0.000859665800817311,0.00221733143553138,1713350772.17403
-0.000845770351588726,0.00220942194573581,1713350772.19683
-0.000802305061370134,0.00225252681411803,1713350772.19774
-0.000721264397725463,0.00225959462113678,1713350772.25238
-0.000906015920918435,0.00220338790677488,1713350772.25358
-0.000819037260953337,0.00221723527647555,1713350772.30033
-0.000906496774405241,0.00227240822277963,1713350772.3016
-0.000803074333816767,0.00223776581697166,1713350772.32861
-0.000815527339000255,0.00225521926768124,1713350772.32931
-0.000842789304442704,0.00226909061893821,1713350772.37709
-0.000913781055714935,0.00222704373300076,1713350772.37804
-0.000786702730692923,0.00224752631038427,1713350772.40449
-0.000774442043621093,0.00229979050345719,1713350772.40553
-0.000748165708500892,0.00229878071695566,1713350772.45329
-0.000849448551889509,0.00223406357690692,1713350772.4539
-0.000837909057736397,0.00226579722948372,1713350772.48137
-0.000801752088591456,0.00228058197535574,1713350772.48201
-0.000841274741105735,0.00225274311378598,1713350772.53272
-0.000750257284380496,0.00230534374713898,1713350772.53379
-0.000882191758137196,0.00228063017129898,1713350772.55649
-0.000739174545742571,0.00226240744814277,1713350772.55769
-0.000778384681325406,0.0022855584975332,1713350772.61261
-0.000733765424229205,0.00229716999456286,1713350772.61347
-0.000768504047300667,0.00227264873683453,1713350772.63241
-0.000835697341244668,0.00229918933473527,1713350772.63344
-0.000787952856626362,0.00228151958435774,1713350772.68874
-0.000778168323449791,0.00228060618974268,1713350772.69011
-0.000765114324167371,0.00229041464626789,1713350772.74478
-0.000802569498773664,0.00229548709467053,1713350772.74621
-0.000781606126111001,0.00227418728172779,1713350772.81651
-0.000776966335251927,0.00228652008809149,1713350772.81765
-0.00078249565558508,0.00228176009841263,1713350772.84437
-0.000806103460490704,0.00229921354912221,1713350772.84598
-0.000795189058408141,0.00228255335241556,1713350772.89289
-0.000795116939116269,0.00226216693408787,1713350772.8935
-0.000813507940620184,0.00226709526032209,1713350772.91327
-0.000789755897130817,0.00227519706822932,1713350772.91428
-0.000824109825771302,0.00224295863881707,1713350772.94074
-0.000848006107844412,0.00227666343562305,1713350772.94173
-0.000805189891252667,0.00225832057185471,1713350772.96476
-0.000813820457551628,0.0022476464509964,1713350772.96584
-0.000790477090049535,0.00227310555055737,1713350773.01685
-0.000776197004597634,0.00224889651872218,1713350773.01799
-0.000806319818366319,0.00222807750105858,1713350773.06438
-0.000800477981101722,0.00223334250040352,1713350773.06553
-0.000782567774876952,0.00228377943858504,1713350773.12863
-0.000883273605722934,0.00219898857176304,1713350773.12979
-0.000807473727036268,0.0022306980099529,1713350773.1524
-0.000786125776357949,0.00223418371751904,1713350773.15367
-0.000789876095950604,0.00219882023520768,1713350773.18046
-0.000790909805800766,0.00223202025517821,1713350773.18123
-0.000830408418551087,0.00222930358722806,1713350773.20042
-0.000798290246166289,0.00223336648195982,1713350773.20114
-0.000895726610906422,0.00219329074025154,1713350773.25641
-0.000755834684241563,0.00221338868141174,1713350773.25757
-0.000790308811701834,0.00222177896648645,1713350773.28034
-0.000793458137195557,0.00222617830149829,1713350773.28171
-0.000781678245402873,0.00224884855560958,1713350773.33278
-0.000812666490674019,0.00219797878526151,1713350773.33403
-0.000804733135737479,0.0022144946269691,1713350773.36079
-0.000797809450887144,0.00222216360270977,1713350773.36182
-0.000804180221166462,0.00222617830149829,1713350773.48038
-0.000821994268335402,0.00223341444507241,1713350773.48153
-0.000806608295533806,0.00222704373300076,1713350773.5408
-0.000816609186585993,0.00222014402970672,1713350773.54192
-0.000811801059171557,0.00221086456440389,1713350773.56444
-0.0008442317484878,0.00221336469985545,1713350773.56537
-0.000821273017209023,0.00222396664321423,1713350773.61352
-0.000921978848055005,0.00222608214244246,1713350773.61469
-0.000769754115026444,0.0022213701158762,1713350773.64459
-0.00083064881619066,0.0022291112691164,1713350773.64609
-0.000869474315550178,0.00224680500105023,1713350773.66113
-0.000757060712203383,0.00223110662773252,1713350773.66318
-0.000803266651928425,0.00223358278162777,1713350773.72495
-0.000814397411886603,0.00224283849820495,1713350773.72605
-0.000824855058453977,0.00223577045835555,1713350773.73239
-0.000823052017949522,0.00224586762487888,1713350773.73379
-0.000823965587187558,0.00224865623749793,1713350773.74132
-0.000825287774205208,0.00225723860785365,1713350773.74232
-0.000822114467155188,0.00224995450116694,1713350773.76475
-0.000857309787534177,0.00225327210500836,1713350773.76578
-0.000902842613868415,0.00225077173672616,1713350773.83296
-0.000784659292548895,0.00226731179282069,1713350773.83387
-0.000799636531155556,0.00225514709018171,1713350773.88053
-0.000874234363436699,0.00225615687668324,1713350773.88167
-0.000890605966560543,0.00224966602399945,1713350773.93662
-0.000822763540782034,0.0022684175055474,1713350773.93759
-0.000841443019453436,0.00225502694956958,1713350773.97309
-0.000822138506919146,0.00225978693924844,1713350774.02025
-0.000832812511362135,0.00226591737009585,1713350774.06842
-0.000880941632203758,0.00224488181993365,1713350774.06949
-0.0008906300063245,0.00226517207920551,1713350774.10475
-0.000834134698379785,0.00226002745330334,1713350774.10597
-0.000853487348649651,0.00227022054605186,1713350774.15636
-0.000833149068057537,0.00226699910126626,1713350774.15709
-0.000852165103424341,0.00225137290544808,1713350774.17704
-0.000876181642524898,0.00226332084275782,1713350774.17819
-0.000917964091058821,0.00227173510938883,1713350774.20444
-0.000821032619569451,0.00227505271323025,1713350774.20649
-0.000850265903864056,0.0022638498339802,1713350774.22905
-0.000852381461299956,0.00227036490105093,1713350774.23
-0.000889956834726036,0.00225346442312002,1713350774.28506
-0.000831249868497252,0.00225570006296039,1713350774.28628
-0.000853968143928796,0.00226925895549357,1713350774.3047
-0.000851251592393965,0.00227041286416352,1713350774.30597
-0.00086283910786733,0.00223940052092075,1713350774.32844
-0.000840914144646376,0.00225490680895746,1713350774.32936
-0.00087113311747089,0.00225399318151176,1713350774.38048
-0.000822523143142462,0.00225728680379689,1713350774.38157
-0.000873176555614919,0.00224319892004132,1713350774.40471
-0.000882215797901154,0.00223995349369943,1713350774.40552
-0.000780091562774032,0.00226577301509678,1713350774.41802
-0.000793554296251386,0.00226930715143681,1713350774.41863
-0.0008604591130279,0.00221800454892218,1713350774.44498
-0.000811416422948241,0.00225430564023554,1713350774.44609
-0.000790044374298304,0.00227334583178163,1713350774.49236
-0.00106239970773458,0.00229765078984201,1713350774.5205
-0.000789755897130817,0.00219329074025154,1713350774.52193
-0.000762517913244665,0.00224687717854977,1713350774.52269
-0.000919719052035362,0.00230418983846903,1713350774.56855
-0.000814517610706389,0.00225298362784088,1713350774.56973
-0.000786342134233564,0.00226964359171689,1713350774.62087
-0.000714701309334487,0.00230269925668836,1713350774.62199
-0.00081689766375348,0.002216802444309,1713350774.63725
-0.000752252642996609,0.00226286426186562,1713350774.63833
-0.000747083919122815,0.00227990886196494,1713350774.69748
-0.000737179187126458,0.00221829302608967,1713350774.69787
-0.000736626272555441,0.00224163639359176,1713350774.72066
-0.000730664236471057,0.00221603317186236,1713350774.72211
-0.000728668877854943,0.00225430564023554,1713350774.76062
-0.000719196861609817,0.0022862795740366,1713350774.76133
-0.000795044819824398,0.00225360854528844,1713350774.82846
-0.000765715318266302,0.00223204423673451,1713350774.82958
-0.000728332262951881,0.00224964180961251,1713350774.86464
-0.000732202839571983,0.00226168613880873,1713350774.86582
-0.000733380788005888,0.00224478566087782,1713350774.87693
-0.000717538059689105,0.00222620228305459,1713350774.87835
-0.000747925310861319,0.00224300660192966,1713350774.92875
-0.000737587921321392,0.00225829659029841,1713350774.92999
-0.000722274067811668,0.0022940447088331,1713350774.96083
-0.000746434845495969,0.00221728323958814,1713350774.96239
-0.000716143753379583,0.00224413652904332,1713350775.00027
-0.000732972112018615,0.00224413652904332,1713350775.00133
-0.000751002517063171,0.00227264873683453,1713350775.03734
-0.000710301857907325,0.00225101225078106,1713350775.0764
-0.000734390516299754,0.00224781478755176,1713350775.1006
-0.000730760395526886,0.00226267194375396,1713350775.10165
-0.000825720548164099,0.00223896792158484,1713350775.16478
-0.000744583667255938,0.0022313951049,1713350775.16627
-0.000742107513360679,0.0022362032905221,1713350775.21637
-0.00075004092650488,0.00224067480303347,1713350775.21729
-0.000758984009735286,0.00222012004815042,1713350775.2364
-0.000729967025108635,0.00223031337372959,1713350775.23769
-0.000738669710699469,0.0022392082028091,1713350775.2608
-0.000763263204135001,0.0022307459730655,1713350775.26186
-0.000755930843297392,0.00223728502169251,1713350775.34516
-0.000746434845495969,0.00222418294288218,1713350775.3465
-0.000764849886763841,0.002222980838269,1713350775.36898
-0.000804516777861863,0.00224798312410712,1713350775.37029
-0.000770643644500524,0.00220422935672104,1713350775.3934
-0.000761532282922417,0.00222959206439555,1713350775.3942
-0.000773191917687655,0.00222899112850428,1713350775.42444
-0.000774658401496708,0.00222766888327897,1713350775.42517
-0.000769946491345763,0.00221899012103677,1713350775.44902
-0.000795766012743115,0.00221348484046757,1713350775.45017
-0.000763984397053719,0.00223507336340845,1713350775.47661
-0.000800766458269209,0.0022345925681293,1713350775.47744
-0.000794684165157378,0.0022508199326694,1713350775.5323
-0.000782183080445975,0.00223783799447119,1713350775.53357
-0.000791438738815486,0.00222817366011441,1713350775.56053
-0.00078170228516683,0.0022462762426585,1713350775.5614
-0.000779971363954246,0.00224630022421479,1713350775.6769
-0.000789828016422689,0.0022430308163166,1713350775.67854
-0.000800766458269209,0.00226485962048173,1713350775.70078
-0.000806776573881507,0.00223548198118806,1713350775.70193
-0.000788097095210105,0.00225947448052466,1713350775.72825
-0.000789010606240481,0.00225507514551282,1713350775.72898
-0.000793482176959515,0.00225810427218676,1713350775.75275
-0.000817354419268668,0.00224863225594163,1713350775.7537
-0.000777543289586902,0.00225913780741394,1713350775.78185
-0.000846010749228299,0.00225045927800238,1713350775.78275
-0.000792664766777307,0.00225365674123168,1713350775.81305
-0.00079740077489987,0.00224841572344303,1713350775.81427
-0.000797208456788212,0.0022508199326694,1713350775.86034
-0.000817642896436155,0.00223466451279819,1713350775.86146
-0.00077588448766619,0.00223235669545829,1713350775.9888
-0.000802040565758944,0.00224906485527754,1713350775.98983
-0.000783649564255029,0.00228647189214826,1713350776.01281
-0.000816873623989522,0.00220466195605695,1713350776.01399
-0.000806632335297763,0.00223697256296873,1713350776.08032
-0.000825792667455971,0.00225865701213479,1713350776.08152
-0.000755281711462885,0.00223153945989907,1713350776.10487
-0.000816705345641822,0.00223079416900873,1713350776.10618
-0.000810214376542717,0.00221072020940483,1713350776.12855
-0.000766148034017533,0.00224115559831262,1713350776.12953
-0.000812209735158831,0.00224459334276617,1713350776.16049
-0.00079237628960982,0.00220658537000418,1713350776.16169
-0.000786173855885863,0.0022160813678056,1713350776.20511
-0.000778072164393961,0.00222485605627298,1713350776.20633
-0.000786390213761479,0.00222956808283925,1713350776.26105
-0.000803627248387784,0.00222971220500767,1713350776.26241
-0.000791799335274845,0.00225214217789471,1713350776.35718
-0.000802641618065536,0.00220242631621659,1713350776.35789
-0.000785933458246291,0.00222165859304368,1713350776.37646
-0.000791631056927145,0.00222605816088617,1713350776.37749
-0.000770042650401592,0.00222644279710948,1713350776.4288
-0.000829446827992797,0.00222177896648645,1713350776.43043
-0.000805526447948068,0.00224524247460067,1713350776.45252
-0.00079026073217392,0.00222877459600568,1713350776.45355
-0.000789779936894774,0.00221199449151754,1713350776.48081
-0.00076626829104498,0.00221663410775363,1713350776.48174
-0.000785188167355955,0.00222865445539355,1713350776.50496
-0.000796631444245577,0.00222610612399876,1713350776.50602
-0.000773312116507441,0.00220961449667811,1713350776.53273
-0.000796631444245577,0.00221002311445773,1713350776.5339
-0.000796006410382688,0.00222562532871962,1713350776.55643
-0.000795213098172098,0.00224211718887091,1713350776.55729
-0.000766580807976425,0.00224709347821772,1713350776.58036
-0.000792736886069179,0.0022144706454128,1713350776.58192
-0.000789755897130817,0.0022382466122508,1713350776.6257
-0.000788073055446148,0.00223757349886,1713350776.62703
-0.000820720102638006,0.00224613188765943,1713350776.6366
-0.000790741527453065,0.00223584263585508,1713350776.63807
-0.00076405651634559,0.00223723705857992,1713350776.66854
-0.000770114769693464,0.00224038632586598,1713350776.66954
-0.00079881917918101,0.00223274133168161,1713350776.69241
-0.000779202091507614,0.00224488181993365,1713350776.69349
-0.000781798444222659,0.00223411177285016,1713350776.74079
-0.000781678245402873,0.00223117880523205,1713350776.74202
-0.000795934291090816,0.00223490502685308,1713350776.75658
-0.000792400329373777,0.00222564931027591,1713350776.75752
-0.000778480840381235,0.00224122777581215,1713350776.81666
-0.000778024084866047,0.00223908806219697,1713350776.81783
-0.000780812813900411,0.00224553095176816,1713350776.84476
-0.000786101736593992,0.00223682820796967,1713350776.84606
-0.000774321844801307,0.00223954487591982,1713350776.91658
-0.000775644090026617,0.00224428088404238,1713350776.91731
-0.000772326486185193,0.00224091508425772,1713350776.94037
-0.000765691278502345,0.00223964103497565,1713350776.94154
-0.00076785491546616,0.00224346341565251,1713350776.98892
-0.000775259453803301,0.00224788696505129,1713350776.99012
-0.00077129271812737,0.0022499063052237,1713350777.01674
-0.000774634361732751,0.0022531277500093,1713350777.01785
-0.000778576999437064,0.00224812724627554,1713350777.06943
-0.000785861280746758,0.00224596378393471,1713350777.0698
-0.000766989483963698,0.00225295941345394,1713350777.09266
-0.000775788328610361,0.00225517130456865,1713350777.09454
-0.000782543735112995,0.00225005066022277,1713350777.13696
-0.000770162849221379,0.00225069955922663,1713350777.13828
-0.000775043037720025,0.00224812724627554,1713350777.18072
-0.000771388877183199,0.00224589160643518,1713350777.18193
-0.000764825846999884,0.00224995450116694,1713350777.2249
-0.000782639894168824,0.00225589238107204,1713350777.2261
-0.000772110128309578,0.00224000168964267,1713350777.31273
-0.000771412916947156,0.00224858405999839,1713350777.33609
-0.000767830875702202,0.00224745413288474,1713350777.36029
-0.000766580807976425,0.00224721385166049,1713350777.36126
-0.000782303279265761,0.00223937653936446,1713350777.37245
-0.000775547930970788,0.00225774361751974,1713350777.37339
-0.000784947769716382,0.0022508199326694,1713350777.39669
-0.000777423090767115,0.00225615687668324,1713350777.39783
-0.000791679136455059,0.00225675781257451,1713350777.41632
-0.000785813201218843,0.00226990808732808,1713350777.41733
-0.000774802640080452,0.00224622804671526,1713350777.47294
-0.00077843276085332,0.00225293543189764,1713350777.47439
-0.00078117341035977,0.00225908984430134,1713350777.55653
-0.000823412614408881,0.00227474025450647,1713350777.55768
-0.00085226126248017,0.00224740616977215,1713350777.57651
-0.000770138809457421,0.00224185269325972,1713350777.57785
-0.000785284326411784,0.0022686580196023,1713350777.60047
-0.000811176025308669,0.00224560312926769,1713350777.60215
-0.000818436266854405,0.00224872841499746,1713350777.61628
-0.000809204648248851,0.0022337029222399,1713350777.61735
-0.000790380930993706,0.00226942729204893,1713350777.67278
-0.000754512439016253,0.00224632420577109,1713350777.67377
-0.000765066244639456,0.00223656394518912,1713350777.73703
-0.00077773560769856,0.00226889830082655,1713350777.73824
-0.000798843218944967,0.00225521926768124,1713350777.76443
-0.000783769763074815,0.00224024197086692,1713350777.76565
-0.000839519780129194,0.00226178229786456,1713350777.78508
-0.000772807281464338,0.00225586839951575,1713350777.78598
-0.000774922838900238,0.00224788696505129,1713350777.81641
-0.000791005964856595,0.00226267194375396,1713350777.87647
-0.000822883739601821,0.00225731078535318,1713350777.94065
-0.00076917716069147,0.00225045927800238,1713350777.94162
-0.000783385126851499,0.00224956986494362,1713350777.96102
-0.000792520528193563,0.0022554115857929,1713350777.96262
-0.000819518056232482,0.00224716565571725,1713350777.98868
-0.000733092310838401,0.00224485783837736,1713350777.9897
-0.000804084062110633,0.0022538248449564,1713350778.01662
-0.000792784965597093,0.00224567530676723,1713350778.01771
-0.000752300722524524,0.00223117880523205,1713350778.02473
-0.000892961921636015,0.00228685676120222,1713350778.02572
-0.000772687082644552,0.00224959384649992,1713350778.08852
-0.000770715763792396,0.00225637317635119,1713350778.08984
-0.000648325367365032,0.00224493001587689,1713350778.16871
-0.000819229579064995,0.00223452039062977,1713350778.16992
-0.000788217294029892,0.00223764567635953,1713350778.17629
-0.00074756471440196,0.00228337082080543,1713350778.17743
-0.000745665514841676,0.00225440179929137,1713350778.19704
-0.000747708952985704,0.00226625381037593,1713350778.1983
-0.000727851467672735,0.00228188023902476,1713350778.23686
-0.000714316673111171,0.0022693551145494,1713350778.23791
-0.000684987171553075,0.00227300939150155,1713350778.28096
-0.000672221649438143,0.00227825017645955,1713350778.2823
-0.000705061014741659,0.0022684175055474,1713350778.30079
-0.000736818590667099,0.00225966679863632,1713350778.30217
-0.000687583582475781,0.00224894471466541,1713350778.34451
-0.000687583582475781,0.00226983590982854,1713350778.34556
-0.000726529222447425,0.0022631527390331,1713350778.38852
-0.000693954294547439,0.00225303159095347,1713350778.4443
-0.000741698837373406,0.00228844326920807,1713350778.45238
-0.000684386177454144,0.0022414920385927,1713350778.45319
-0.000682414858601987,0.00227053300477564,1713350778.4604
-0.000681188772432506,0.00227623083628714,1713350778.46231
-0.000719797913916409,0.00227257655933499,1713350778.51657
-0.000683328369632363,0.00226824916899204,1713350778.51797
-0.000676693220157176,0.0022901261691004,1713350778.54061
-0.000707080471329391,0.0022700282279402,1713350778.54181
-0.000699002819601446,0.00227858661673963,1713350778.57653
-0.000692415691446513,0.0022748364135623,1713350778.57773
-0.000727490871213377,0.00228911638259888,1713350778.6285
-0.000646618485916406,0.00229351595044136,1713350778.62945
-0.000702392542734742,0.00227349018678069,1713350778.65667
-0.000701695389579982,0.00227685575373471,1713350778.65774
-0.000665923056658357,0.00230488716624677,1713350778.69291
-0.00073645799420774,0.00227529322728515,1713350778.69411
-0.000705085054505616,0.00228339480236173,1713350778.75642
-0.000706070743035525,0.00228560646064579,1713350778.75772
-0.000665466242935509,0.00228639994747937,1713350778.80075
-0.0007145811105147,0.00228310632519424,1713350778.80184
-0.000703690748196095,0.002290174132213,1713350778.81635
-0.000705277430824935,0.00229762680828571,1713350778.81713
-0.000709316227585077,0.00229618442244828,1713350778.93638
-0.000716456270311028,0.00228106277063489,1713350778.9371
-0.000707368948496878,0.00230046361684799,1713350778.98499
-0.000709051790181547,0.00230010296218097,1713350778.98629
-0.000725880148820579,0.0022931070998311,1713350779.04428
-0.000687367224600166,0.00229469384066761,1713350779.0459
-0.000713210785761476,0.00230685831047595,1713350779.09688
-0.000717465940397233,0.0023095989599824,1713350779.09757
-0.000720879703294486,0.00233563501387835,1713350779.12074
-0.000745088560506702,0.00230015115812421,1713350779.12188
-0.000707128550857306,0.00232005654834211,1713350779.13668
-0.00070929218782112,0.00232347031123936,1713350779.13785
-0.000709508545696735,0.00232661981135607,1713350779.19298
-0.000714124354999512,0.00233058631420135,1713350779.19403
-0.000726961996406317,0.00233683688566089,1713350779.21632
-0.000698546064086258,0.00233101914636791,1713350779.21751
-0.000743141281418502,0.00231577735394239,1713350779.24832
-0.000705061014741659,0.00232315785251558,1713350779.24922
-0.000760570634156466,0.00234561180695891,1713350779.27299
-0.000710037420503795,0.00234991498291492,1713350779.27476
-0.000712705950718373,0.00233152392320335,1713350779.29289
-0.000721793272532523,0.00233361544087529,1713350779.29393
-0.000729558349121362,0.00234032282605767,1713350779.32098
-0.000710854830686003,0.00234162108972669,1713350779.3234
-0.000724293466191739,0.00232633110135794,1713350779.42042
-0.000716432230547071,0.0023413326125592,1713350779.42217
-0.000720999902114272,0.0023372215218842,1713350779.44488
-0.000709652784280479,0.00233791884966195,1713350779.44603
-0.000710782711394131,0.00232767756097019,1713350779.47281
-0.000679361692164093,0.00235176621936262,1713350779.47378
-0.000745256838854402,0.00230483897030354,1713350779.4968
-0.000693930254783481,0.00232373480685055,1713350779.49781
-0.000705926504451782,0.00233500986360013,1713350779.53633
-0.000703233934473246,0.0023219077847898,1713350779.53755
-0.0006981854676269,0.00232736486941576,1713350779.55248
-0.0007122972747311,0.00231859018094838,1713350779.55326
-0.000729125633370131,0.00233765435405076,1713350779.57626
-0.000694098533131182,0.00233178841881454,1713350779.57748
-0.000700517382938415,0.00232996139675379,1713350779.62847
-0.000717009184882045,0.00233015371486545,1713350779.62915
-0.000673471775371581,0.00232818233780563,1713350779.68488
-0.000658999371808022,0.00233147596009076,1713350779.68597
-0.000679313612636179,0.00233500986360013,1713350779.73275
-0.000663759361486882,0.00235092476941645,1713350779.73387
-0.000696334347594529,0.00235234317369759,1713350779.75705
-0.000676404742989689,0.00232575414702296,1713350779.7577
-0.000688569212798029,0.00232902378775179,1713350779.78043
-0.00065089768031612,0.00234128441661596,1713350779.78123
-0.000650513044092804,0.00233645224943757,1713350779.81326
-0.000640704529359937,0.00233488972298801,1713350779.81389
-0.000652989197988063,0.00233241356909275,1713350779.86908
-0.000659528246615082,0.00231563323177397,1713350779.86999
-0.000632723036687821,0.00231774873100221,1713350779.8969
-0.000638516794424504,0.00231209932826459,1713350779.89801
-0.000658181961625814,0.00234020268544555,1713350779.94455
-0.000625871471129358,0.00234157289378345,1713350779.94544
-0.000681813864503056,0.00233287014998496,1713350779.99688
-0.000626160006504506,0.00233320682309568,1713350779.99798
-0.000640488171484321,0.00233541848137975,1713350780.02043
-0.000639935198705643,0.00234746281057596,1713350780.02164
-0.00064269988797605,0.0023351782001555,1713350780.09678
-0.000627770670689642,0.00233390391804278,1713350780.09858
-0.000637266726698726,0.00233387993648648,1713350780.12076
-0.000647652253974229,0.00233597145415843,1713350780.12182
-0.000684818893205375,0.00232166727073491,1713350780.14849
-0.000632723036687821,0.0023195999674499,1713350780.14983
-0.000625751272309572,0.00232895161025226,1713350780.17248
-0.00063608872005716,0.00233135558664799,1713350780.17383
-0.000639646721538156,0.00233101914636791,1713350780.24832
-0.000627939007245004,0.0023582330904901,1713350780.24926
-0.000632218201644719,0.0023125319276005,1713350780.27661
-0.000637603283394128,0.00232955254614353,1713350780.27784
-0.00063212204258889,0.00233681290410459,1713350780.30878
-0.000655850046314299,0.00231705163605511,1713350780.30992
-0.000619741156697273,0.00232666777446866,1713350780.35671
-0.000613298267126083,0.00232726871035993,1713350780.35807
-0.000607720867265016,0.00233255769126117,1713350780.38071
-0.000622289429884404,0.00232205190695822,1713350780.38196
-0.000634838594123721,0.00231320504099131,1713350780.51688
-0.000625366636086255,0.00232553784735501,1713350780.51806
-0.00064693100284785,0.00236700777895749,1713350780.54067
-0.000704532139934599,0.00236933981068432,1713350780.54211
-0.000592262833379209,0.00230065593495965,1713350780.61648
-0.000634045281913132,0.0023296969011426,1713350780.61782
-0.000653229653835297,0.00235135736875236,1713350780.64444
-0.000626905239187181,0.00232919212430716,1713350780.64537
-0.000612120318692178,0.00233099516481161,1713350780.66856
-0.000614139717072248,0.00233645224943757,1713350780.69241
-0.000632434559520334,0.00233380775898695,1713350780.70841
-0.000612769392319024,0.00231724395416677,1713350780.70965
-0.000608946953434497,0.00234450586140156,1713350780.74034
-0.00060036446666345,0.00239429390057921,1713350780.74167
-0.000660537974908948,0.00232409546151757,1713350780.76072
-0.000608730595558882,0.00232823053374887,1713350780.7617
-0.000610413437243551,0.00234169303439558,1713350780.85665
-0.000590892508625984,0.00236111786216497,1713350780.85851
-0.000690179935190827,0.00238400441594422,1713350780.88446
-0.00062002963386476,0.00235063629224896,1713350780.88562
-0.000627145636826754,0.00234924186952412,1713350780.93276
-0.000645464519038796,0.00236159865744412,1713350780.93404
-0.000570890784729272,0.00238244188949466,1713350780.9565
-0.000661523605231196,0.00234001036733389,1713350780.95762
-0.000621063401922584,0.00235005933791399,1713350780.97626
-0.000675923889502883,0.0023342645727098,1713350780.97744
-0.000670178211294115,0.00234753498807549,1713350781.00446
-0.000612240517511964,0.00233616377227008,1713350781.0057
-0.00062091916333884,0.00234866491518915,1713350781.05664
-0.000647724373266101,0.00234950636513531,1713350781.0575
-0.000639863079413772,0.0023705898784101,1713350781.07676
-0.000637074408587068,0.00234642904251814,1713350781.07792
-0.000650152447633445,0.00236099772155285,1713350781.10479
-0.000642411410808563,0.00236679147928953,1713350781.10578
-0.000637699442449957,0.0023552761413157,1713350781.12483
-0.00062885251827538,0.00237782602198422,1713350781.12605
-0.000650849600788206,0.00236376235261559,1713350781.18037
-0.000635006872471422,0.00237054168246686,1713350781.20828
-0.000637483084574342,0.00236195931211114,1713350781.22842
-0.000651739130262286,0.00236508459784091,1713350781.22928
-0.000643925915937871,0.00236777705140412,1713350781.27235
-0.000636713753920049,0.00235181418247521,1713350781.27352
-0.000636016600765288,0.00236025243066251,1713350781.34862
-0.000657629047054797,0.00236931559629738,1713350781.3496
-0.000648325367365032,0.00234606838785112,1713350781.40055
-0.00063397316262126,0.00235058809630573,1713350781.40162
-0.000647868611849844,0.00233186059631407,1713350781.4292
-0.000641065125819296,0.00233604363165796,1713350781.42971
-0.000676236406434327,0.00236501242034137,1713350781.4449
-0.00065116211771965,0.00233181240037084,1713350781.44613
-0.000627193716354668,0.00234878505580127,1713350781.47674
-0.000640175596345216,0.00234448187984526,1713350781.47779
-0.000729870866052806,0.00233193277381361,1713350781.50888
-0.000725711870472878,0.00240547279827297,1713350781.50982
-0.000610918272286654,0.0023303700145334,1713350781.52886
-0.00058175710728392,0.00234630890190601,1713350781.52988
-0.000579136656597257,0.00242191646248102,1713350781.55686
-0.000643421080894768,0.00232212408445775,1713350781.55814
-0.000618130434304476,0.00233075465075672,1713350781.57808
-0.000610581715591252,0.00233681290410459,1713350781.57832
-0.000619620957877487,0.00235243933275342,1713350781.66463
-0.000611062510870397,0.00234424136579037,1713350781.66584
-0.000593104225117713,0.00233063451014459,1713350781.68483
-0.000599979830440134,0.00232024886645377,1713350781.68582
-0.000648397486656904,0.00228724139742553,1713350781.71283
-0.000590339594054967,0.00232976907864213,1713350781.73647
-0.000581444590352476,0.00233455304987729,1713350781.76049
-0.000603201275225729,0.00233508204109967,1713350781.76148
-0.00060971622588113,0.00232428777962923,1713350781.78066
-0.000591132906265557,0.00235183816403151,1713350781.78178
-0.000604980275966227,0.0023089018650353,1713350781.82478
-0.000598056591115892,0.00231830170378089,1713350781.82587
-0.000598056591115892,0.00234234216623008,1713350781.87668
-0.000604619679506868,0.00233046617358923,1713350781.87799
-0.000596109312027693,0.00233330298215151,1713350781.90437
-0.000610701914411038,0.00233029783703387,1713350781.90537
-0.000604739878326654,0.00234426534734666,1713350781.95233
-0.000609740265645087,0.00233224523253739,1713350781.95374
-0.000618202553596348,0.00231950380839407,1713350781.97237
-0.000612456875387579,0.00233224523253739,1713350781.97346
-0.000615846598520875,0.00233068247325718,1713350782.04848
-0.000588680792134255,0.00234087579883635,1713350782.04931
-0.000583367829676718,0.00232835067436099,1713350782.0701
-0.000624501204583794,0.00231520039960742,1713350782.07034
-0.000625847431365401,0.00232661981135607,1713350782.09676
-0.000594354351051152,0.00232940842397511,1713350782.09772
-0.000629261194262654,0.00232298951596022,1713350782.18078
-0.000619188242126256,0.00232902378775179,1713350782.18196
-0.000604234985075891,0.00232938444241881,1713350782.18839
-0.000614572432823479,0.00232926406897604,1713350782.1896
-0.000636377197224647,0.00234539527446032,1713350782.21635
-0.000619909435044974,0.00231351749971509,1713350782.21732
-0.00062240962870419,0.00232984102331102,1713350782.31229
-0.000617890036664903,0.00232902378775179,1713350782.31374
-0.000624861801043153,0.00231919111683965,1713350782.33712
-0.000603898428380489,0.00233287014998496,1713350782.33852
-0.000634189520496875,0.00232597067952156,1713350782.35633
-0.000602239626459777,0.00234527513384819,1713350782.35716
-0.000619572878349572,0.00232289335690439,1713350782.38037
-0.000637987919617444,0.00232479255646467,1713350782.3811
-0.000624501204583794,0.00232472061179578,1713350782.42082
-0.000612793432082981,0.00234323181211948,1713350782.42241
-0.000628395762760192,0.00233851978555322,1713350782.46854
-0.000649359077215195,0.00233412045054138,1713350782.4697
-0.000627313915174454,0.00234075565822422,1713350782.49239
-0.000638444675132632,0.00232772552408278,1713350782.49347
-0.000638060038909316,0.00233912072144449,1713350782.5806
-0.00066061009420082,0.00235029961913824,1713350782.58177
-0.000645873253233731,0.00234277499839663,1713350782.62838
-0.000639117846731097,0.00233056233264506,1713350782.62968
-0.000650705362204462,0.00234505883418024,1713350782.65642
-0.000661427446175367,0.0023527997545898,1713350782.6575
-0.000688232656102628,0.00236775306984782,1713350782.67643
-0.00067145237699151,0.00235871388576925,1713350782.67764
-0.000655441370327026,0.0023559732362628,1713350782.70066
-0.000671548536047339,0.00236366619355977,1713350782.7018
-0.000699387455824763,0.00233404827304184,1713350782.75639
-0.000659768644254655,0.00236157467588782,1713350782.75718
-0.000652243965305388,0.00236361799761653,1713350782.77662
-0.00069200701545924,0.0023566703312099,1713350782.77789
-0.000662533333525062,0.00237277755513787,1713350782.89657
-0.000631208473350853,0.00235888222232461,1713350782.8983
-0.000679169374052435,0.00238850014284253,1713350782.93248
-0.000680707977153361,0.00234801578335464,1713350782.93358
-0.000662942009512335,0.00238191289827228,1713350782.96465
-0.000654623960144818,0.00233888044022024,1713350782.96595
-0.000676524941809475,0.00234510679729283,1713350783.08841
-0.000666067295242101,0.00235378555953503,1713350783.08944
-0.000674048729706556,0.00236219959333539,1713350783.1088
-0.000684458296746016,0.00234085181728005,1713350783.10985
-0.000658446457237005,0.00234739063307643,1713350783.13218
-0.000683136051520705,0.00235448265448213,1713350783.13333
-0.000656186603009701,0.00235212664119899,1713350783.15687
-0.000696093891747296,0.00234073144383728,1713350783.15785
-0.000685876701027155,0.00234450586140156,1713350783.19299
-0.000665562401991338,0.00233924109488726,1713350783.1939
-0.00064931099768728,0.00234739063307643,1713350783.24489
-0.000665562401991338,0.00234409724362195,1713350783.24622
-0.00065231608459726,0.00233736587688327,1713350783.2522
-0.000653061375487596,0.00235405005514622,1713350783.25308
-0.000657845404930413,0.00233515398576856,1713350783.28439
-0.000631136354058981,0.00233609159477055,1713350783.28546
-0.000644791405647993,0.00235020346008241,1713350783.30887
-0.000667028885800391,0.00236183917149901,1713350783.31014
-0.000643060484435409,0.0023228214122355,1713350783.39671
-0.000674842100124806,0.00233082682825625,1713350783.39784
-0.000671837013214827,0.00235073245130479,1713350783.42909
-0.00054189789807424,0.00232724472880363,1713350783.43026
-0.000639478443190455,0.00234861671924591,1713350783.50475
-0.000644695246592164,0.00233969767577946,1713350783.50597
-0.000608057423960418,0.00235960329882801,1713350783.52863
-0.00062832364346832,0.00237246509641409,1713350783.52945
-0.000610317278187722,0.00235695880837739,1713350783.5569
-0.000633925083093345,0.00233924109488726,1713350783.55792
-0.000599787512328476,0.00232832669280469,1713350783.57244
-0.000658085802569985,0.00235402584075928,1713350783.57343
-0.000617601559497416,0.00230904598720372,1713350783.66059
-0.000564447895158082,0.00231517641805112,1713350783.66174
-0.000582069624215364,0.00234806397929788,1713350783.69291
-0.000586925831157714,0.00235313642770052,1713350783.69412
-0.000565409543924034,0.00234013050794601,1713350783.71257
-0.000629549671430141,0.00231556105427444,1713350783.71368
-0.000645777035970241,0.00232830247841775,1713350783.74057
-0.000603513792157173,0.00234246230684221,1713350783.74167
-0.000545696297194809,0.00233234139159322,1713350783.76883
-0.000604908156674355,0.00232498487457633,1713350783.77002
-0.000632410519756377,0.00233222125098109,1713350783.79747
-0.000563774781767279,0.00233472138643265,1713350783.79784
-0.000552860379684716,0.00234878505580127,1713350783.82936
-0.000599258637521416,0.00233753421343863,1713350783.83018
-0.000604643719270825,0.00232601864263415,1713350783.85319
-0.000609571987297386,0.00232371082529426,1713350783.85434
-0.000579040497541428,0.00233676470816135,1713350783.95259
-0.000589930859860033,0.00232443190179765,1713350783.95359
-0.000577045138925314,0.00234094797633588,1713350784.00495
-0.000569544499740005,0.00233856774866581,1713350784.03236
-0.000563774781767279,0.00233926507644355,1713350784.05665
-0.000620967242866755,0.00230791606009006,1713350784.05773
-0.000572309189010412,0.00233529834076762,1713350784.07686
-0.000578295264858753,0.00234080362133682,1713350784.0779
-0.000594474549870938,0.00234181340783834,1713350784.10836
-0.000592527270782739,0.00232097017578781,1713350784.1098
-0.000584281340707094,0.00233318284153938,1713350784.13671
-0.000583199551329017,0.00232979306019843,1713350784.138
-0.000582622538786382,0.00233371159993112,1713350784.16088
-0.000591349264141172,0.00232902378775179,1713350784.16192
-0.000609932641964406,0.00232024886645377,1713350784.18045
-0.000580506981350482,0.00232698023319244,1713350784.18164
-0.000617986195720732,0.00232284539379179,1713350784.20866
-0.000605677429120988,0.0023228214122355,1713350784.20994
-0.00059798447182402,0.00233130762353539,1713350784.29232
-0.000626640801783651,0.00231577735394239,1713350784.29325
-0.00062118360074237,0.00233207689598203,1713350784.32476
-0.000607528549153358,0.00233275000937283,1713350784.32609
-0.00062029407126829,0.00231974408961833,1713350784.34894
-0.000595267862081528,0.00233984203077853,1713350784.35024
-0.00063467031577602,0.00232693227007985,1713350784.36856
-0.000636809912975878,0.00232277321629226,1713350784.36935
-0.00061050959629938,0.0023280861787498,1713350784.39245
-0.000634646276012063,0.00233777449466288,1713350784.39323
-0.00062594359042123,0.00233984203077853,1713350784.42444
-0.000635247328318656,0.00232597067952156,1713350784.42539
-0.000630054564680904,0.00232890364713967,1713350784.4685
-0.000632867275271565,0.0023326778318733,1713350784.54825
-0.000652700720820576,0.00235017947852612,1713350784.56039
-0.000630944035947323,0.00231000757776201,1713350784.56133
-0.000632843235507607,0.00232686009258032,1713350784.56234
-0.000677005737088621,0.00233640428632498,1713350784.56339
-0.000641882477793843,0.00233212509192526,1713350784.66055
-0.000650705362204462,0.00231274822726846,1713350784.66175
-0.000646979082375765,0.00233255769126117,1713350784.66822
-0.000586757552810013,0.00233669276349246,1713350784.66922
-0.000666355772409588,0.00230303592979908,1713350784.72023
-0.00064666656544432,0.00233686086721718,1713350784.72089
-0.000561731343623251,0.00233613979071379,1713350784.74098
-0.000686044979374856,0.00230760360136628,1713350784.74222
-0.000606086105108261,0.00233041821047664,1713350784.76478
-0.000626833119895309,0.00230399752035737,1713350784.76601
-0.000625174317974597,0.00231351749971509,1713350784.81273
-0.000524588685948402,0.00235222280025482,1713350784.81376
-0.000664480612613261,0.00231426279060543,1713350784.88068
-0.000606615038122982,0.00231582554988563,1713350784.88202
-0.000611879921052605,0.00229293899610639,1713350784.90057
-0.000636641634628177,0.0023050073068589,1713350784.90221
-0.000561755383387208,0.00232065771706402,1713350784.92847
-0.000630823837127537,0.00230330042541027,1713350784.92984
-0.000617553479969502,0.00229690549895167,1713350784.95232
-0.000620414270088077,0.00235717534087598,1713350784.95356
-0.00056949642021209,0.00229644891805947,1713350784.98052
-0.000584545778110623,0.00231760460883379,1713350784.98164
-0.0006419065175578,0.00232606683857739,1713350785.03253
-0.000538532214704901,0.00231087324209511,1713350785.05281
-0.000526343646924943,0.00231469562277198,1713350785.07276
-0.000542763329576701,0.00232070568017662,1713350785.07358
-0.000620173872448504,0.00230844505131245,1713350785.08864
-0.000531344092451036,0.00232181162573397,1713350785.08978
-0.000656571239233017,0.0023310671094805,1713350785.1369
-0.00057690090034157,0.00231560925021768,1713350785.13797
-0.000528771721292287,0.00233912072144449,1713350785.25264
-0.000602552143391222,0.00229197717271745,1713350785.25401
-0.000558509898837656,0.00229421304538846,1713350785.28075
-0.000590604031458497,0.00230834889225662,1713350785.28187
-0.000525910931173712,0.00233873608522117,1713350785.30086
-0.000572092772927135,0.00227358634583652,1713350785.30203
-0.00057742977514863,0.00228728936053812,1713350785.34467
-0.000565649941563606,0.00231361365877092,1713350785.34595
-0.000597912352532148,0.00231193099170923,1713350785.39695
-0.00061236071633175,0.0023111617192626,1713350785.39845
-0.000543797097634524,0.00231861416250467,1713350785.41637
-0.000562620814889669,0.00231510424055159,1713350785.41734
-0.000611134630162269,0.00228868378326297,1713350785.44872
-0.000567164504900575,0.0023102720733732,1713350785.4498
-0.000574833422433585,0.00229781912639737,1713350785.46872
-0.000524324248544872,0.00231000757776201,1713350785.46977
-0.000571828335523605,0.00230868556536734,1713350785.50859
-0.000627626432105899,0.00230293977074325,1713350785.5096
-0.000588416354730725,0.0022956074681133,1713350785.54451
-0.000565481663215905,0.00230988743714988,1713350785.54547
-0.000589546223636717,0.00231123366393149,1713350785.61283
-0.000535046332515776,0.00234193354845047,1713350785.61374
-0.000571275420952588,0.00229197717271745,1713350785.62102
-0.000574136269278824,0.00229916535317898,1713350785.6221
-0.00057038594968617,0.00230344454757869,1713350785.68468
-0.000581660948228091,0.00230118469335139,1713350785.68568
-0.000571708136703819,0.00228656805120409,1713350785.70918
-0.000580362742766738,0.00229668919928372,1713350785.71027
-0.000579593470320106,0.00229750666767359,1713350785.73241
-0.000579040497541428,0.00230046361684799,1713350785.7333
-0.000582358101382852,0.0023011127486825,1713350785.82839
-0.000572597666177899,0.00230334838852286,1713350785.82986
-0.000583103392273188,0.0023033965844661,1713350785.83645
-0.000582670618314296,0.00231212330982089,1713350785.83789
-0.000585771864280105,0.00230012694373727,1713350785.86488
-0.000597912352532148,0.0023008962161839,1713350785.86608
-0.000575843150727451,0.00230870954692364,1713350785.89686
-0.00058440153952688,0.00230873352847993,1713350785.89817
-0.000574520905502141,0.00231111352331936,1713350785.94484
-0.000596830504946411,0.00230596889741719,1713350785.94589
-0.000583704386372119,0.00229991064406931,1713350785.97676
-0.000580050225835294,0.00231339735910296,1713350785.97806
-0.000578463543206453,0.00231279642321169,1713350786.05642
-0.000599931750912219,0.00231832568533719,1713350786.05733
-0.0005847621941939,0.00231092120520771,1713350786.10135
-0.00058255041949451,0.00232082582078874,1713350786.10253
-0.000599234597757459,0.00231601786799729,1713350786.12063
-0.000590171315707266,0.00229817978106439,1713350786.1215
-0.000613658921793103,0.00232383096590638,1713350786.17251
-0.00055855797836557,0.00231931149028242,1713350786.17355
-0.000585291069000959,0.00231157033704221,1713350786.19704
-0.000596373749431223,0.00232154713012278,1713350786.1979
-0.000594378390815109,0.0023049833253026,1713350786.21696
-0.000596517988014966,0.00231318105943501,1713350786.21853
-0.000583031272981316,0.00231423880904913,1713350786.29664
-0.000603513792157173,0.00232306169345975,1713350786.29752
-0.000621111481450498,0.00232539372518659,1713350786.32472
-0.000584473658818752,0.00230738730169833,1713350786.32577
-0.000584209221415222,0.00233363965526223,1713350786.34496
-0.000575746933463961,0.00232678791508079,1713350786.34675
-0.000603273394517601,0.00231544091366231,1713350786.37242
-0.000557548250071704,0.00235602119937539,1713350786.37323
-0.000586348818615079,0.00230616121552885,1713350786.42452
-0.000591373303905129,0.00232782168313861,1713350786.4256
-0.000596830504946411,0.00232796603813767,1713350786.46888
-0.000520261412020773,0.00233604363165796,1713350786.47008
-0.000681044533848763,0.00231070490553975,1713350786.49682
-0.000592358992435038,0.00232385494746268,1713350786.4981
-0.000579761748667806,0.00232799001969397,1713350786.57642
-0.000582983193453401,0.0023365244269371,1713350786.57722
-0.000556923216208816,0.00235248729586601,1713350786.60047
-0.000546201132237911,0.00232450407929718,1713350786.60176
-0.000616687990259379,0.00231548887677491,1713350786.68041
-0.000579401152208447,0.00233176443725824,1713350786.6815
-0.000617577519733459,0.00235751178115606,1713350786.70049
-0.000590123236179352,0.00229536695405841,1713350786.7017
-0.000581709027756006,0.00232106633484364,1713350786.70842
-0.000581660948228091,0.00233308668248355,1713350786.70952
-0.000623202999122441,0.00231137801893055,1713350786.76047
-0.000524708884768188,0.002317123580724,1713350786.76167
-0.00056182750267908,0.00232452806085348,1713350786.78462
-0.000557548250071704,0.00232409546151757,1713350786.78561
-0.000549422577023506,0.00232948060147464,1713350786.81267
-0.000535767525434494,0.00232109031639993,1713350786.81375
-0.00062858808087185,0.00235147750936449,1713350786.89711
-0.000540864130016416,0.00232426379807293,1713350786.89751
-0.000546393450349569,0.0023289998061955,1713350786.90844
-0.00047256494872272,0.00235356925986707,1713350786.9095
-0.000487950892420486,0.00235777627676725,1713350786.96065
-0.000578703940846026,0.00231796503067017,1713350786.96225
-0.000538051419425756,0.00234440970234573,1713350786.98196
-0.00055194681044668,0.00234835245646536,1713350786.98245
-0.000504370604176074,0.00232342234812677,1713350787.02897
-0.00055723573314026,0.00230479100719094,1713350787.02989
-0.000578824139665812,0.00231609004549682,1713350787.05251
-0.000529781449586153,0.00230786809697747,1713350787.0537
-0.000545407820027322,0.0022926505189389,1713350787.09666
-0.000554519181605428,0.00226096506230533,1713350787.09768
-0.000537762884050608,0.00230207433924079,1713350787.15304
-0.0005588224157691,0.00231866235844791,1713350787.15429
-0.000528699602000415,0.00232695625163615,1713350787.16481
-0.000551802571862936,0.00231342134065926,1713350787.16666
-0.000574280507862568,0.0023011127486825,1713350787.22452
-0.000500860682222992,0.00231760460883379,1713350787.24827
-0.000571515818592161,0.002274812432006,1713350787.26039
-0.000542739289812744,0.00229914137162268,1713350787.26356
-0.000543244124855846,0.00230214651674032,1713350787.32887
-0.000573703495319933,0.00231279642321169,1713350787.33071
-0.000518169836141169,0.00230120890773833,1713350787.36892
-0.000542282534297556,0.00229897303506732,1713350787.37007
-0.000544662529136986,0.00230539194308221,1713350787.40098
-0.000544277892913669,0.00230435817502439,1713350787.40231
-0.000560986052732915,0.00230154534801841,1713350787.42856
-0.000550023571122438,0.00230988743714988,1713350787.42959
-0.000554639380425215,0.00230632955208421,1713350787.45681
-0.000582310021854937,0.00230661802925169,1713350787.45776
-0.00058661331422627,0.00230289157480001,1713350787.50868
-0.000529949727933854,0.00231488794088364,1713350787.50968
-0.000520646048244089,0.00231342134065926,1713350787.5366
-0.000540359294973314,0.00232383096590638,1713350787.53914
-0.000545528018847108,0.00233604363165796,1713350787.58076
-0.000533651967998594,0.0023219317663461,1713350787.58226
-0.000625727232545614,0.00231274822726846,1713350787.62473
-0.000525333918631077,0.00232652365230024,1713350787.62569
-0.000556778977625072,0.00232284539379179,1713350787.64889
-0.000551177538000047,0.0023310671094805,1713350787.64994
-0.000563606503419578,0.00232616299763322,1713350787.75631
-0.000547643576283008,0.00232570618391037,1713350787.75743
-0.000546080933418125,0.00233320682309568,1713350787.8007
-0.000579785788431764,0.00234534731134772,1713350787.80237
-0.000536392617505044,0.00233190855942667,1713350787.81293
-0.000574496865738183,0.00233082682825625,1713350787.83681
-0.000545311660971493,0.00233306246809661,1713350787.90085
-0.000562212138902396,0.00233921688050032,1713350787.90194
-0.000554302823729813,0.00232234038412571,1713350787.91675
-0.000493360043037683,0.00234327977523208,1713350787.91786
-0.000557908904738724,0.00232904776930809,1713350787.9407
-0.000549158139619976,0.00233450508676469,1713350787.94174
-0.00055274018086493,0.00233556283637881,1713350787.97273
-0.000498216191772372,0.0023427028208971,1713350787.97385
-0.000580458901822567,0.00233024987392128,1713350787.9976
-0.000562140019610524,0.00233988999389112,1713350787.99784
-0.000560529297217727,0.00234717433340847,1713350788.01692
-0.00055379793047905,0.00233844760805368,1713350788.01785
-0.000539806322194636,0.00233414443209767,1713350788.0646
-0.000564495974685997,0.00233246153220534,1713350788.06578
-0.000517568842042238,0.00235162186436355,1713350788.09644
-0.000606639077886939,0.00232443190179765,1713350788.09811
-0.000575362297240645,0.00234787142835557,1713350788.12875
-0.000518314132932574,0.00235592504031956,1713350788.12982
-0.000577598111703992,0.00235010730102658,1713350788.18521
-0.00057646818459034,0.00234020268544555,1713350788.1863
-0.000570313772186637,0.002326475456357,1713350788.24886
-0.000612120318692178,0.00237708073109388,1713350788.2501
-0.00058255041949451,0.00233366363681853,1713350788.25703
-0.000579184736125171,0.00233914493583143,1713350788.2579
-0.000575482496060431,0.00233683688566089,1713350788.3123
-0.000573102501221001,0.00234722252935171,1713350788.31353
-0.000578992418013513,0.0023303939960897,1713350788.33638
-0.000569688738323748,0.00234053912572563,1713350788.35656
-0.00059243111172691,0.00233137980103493,1713350788.37647
-0.000548124371562153,0.00233085080981255,1713350788.37793
-0.0005868777516298,0.00232979306019843,1713350788.45669
-0.000571972574107349,0.00232467241585255,1713350788.45801
-0.000604210945311934,0.002327413065359,1713350788.47632
-0.000578896258957684,0.00232000858522952,1713350788.47756
-0.000568847346585244,0.00233392813242972,1713350788.50083
-0.000578944338485599,0.00234089978039265,1713350788.5022
-0.000602239626459777,0.00234907353296876,1713350788.53697
-0.000568342453334481,0.00232137879356742,1713350788.53797
-0.000592984026297927,0.00232601864263415,1713350788.56873
-0.000560721615329385,0.0023552761413157,1713350788.56978
-0.000592839787714183,0.0023187343031168,1713350788.62449
-0.000579545390792191,0.00232601864263415,1713350788.62576
-0.000562620814889669,0.00235679047182202,1713350788.65227
-0.000551802571862936,0.00232734088785946,1713350788.65349
-0.000565890339203179,0.00232342234812677,1713350788.68456
-0.00059745559701696,0.00231647468172014,1713350788.68603
-0.000563005451112986,0.00233500986360013,1713350788.7563
-0.000558077183086425,0.00234342413023114,1713350788.75729
-0.000568366493098438,0.00232222024351358,1713350788.77282
-0.000548028212506324,0.00231012795120478,1713350788.77432
-0.000561322609428316,0.00233902456238866,1713350788.81262
-0.000528459204360843,0.00235811271704733,1713350788.81377
-0.000579112616833299,0.0023550356272608,1713350788.93282
-0.000548821582924575,0.00229748245328665,1713350788.93398
-0.00055812526261434,0.00231527257710695,1713350788.94431
-0.000566731730941683,0.00234558759257197,1713350788.97277
-0.000524059811141342,0.00231854198500514,1713350788.99236
-0.000529300654307008,0.00232558604329824,1713350788.99357
-0.000553341174963862,0.0023248647339642,1713350789.01672
-0.000546754046808928,0.00229971832595766,1713350789.01784
-0.000557908904738724,0.00229890085756779,1713350789.03252
-0.000539085129275918,0.00230055977590382,1713350789.03323
-0.000551634293515235,0.00231315707787871,1713350789.04844
-0.000558630097657442,0.0023089018650353,1713350789.04901
-0.000517761160153896,0.00230745947919786,1713350789.10443
-0.000531945086549968,0.00230512744747102,1713350789.1054
-0.000533507729414851,0.00230149738490582,1713350789.13642
-0.000543532660230994,0.00230168970301747,1713350789.13859
-0.000530670920852572,0.00229635275900364,1713350789.17234
-0.000535527127794921,0.00229909317567945,1713350789.17338
-0.000563606503419578,0.00230351672507823,1713350789.21816
-0.000520694127772003,0.00230868556536734,1713350789.2184
-0.000545095244888216,0.00231096940115094,1713350789.2763
-0.000568895426113158,0.00228721718303859,1713350789.27746
-0.000549422577023506,0.00229599210433662,1713350789.30041
-0.000561130291316658,0.00229284283705056,1713350789.30141
-0.00055326905567199,0.00230382918380201,1713350789.37253
-0.000523242400959134,0.0022839717566967,1713350789.37359
-0.000548340729437768,0.00228591915220022,1713350789.4723
-0.000536392617505044,0.00229873275384307,1713350789.47308
-0.000551922770682722,0.00231770076788962,1713350789.49279
-0.000539133208803833,0.00229301094077528,1713350789.49413
-0.000541849818546325,0.00229317927733064,1713350789.54441
-0.000548196490854025,0.00229358789511025,1713350789.54559
-0.00053095945622772,0.00231589772738516,1713350789.56053
-0.00055211508879438,0.00229510245844722,1713350789.5618
-0.000549855292774737,0.00230046361684799,1713350789.65232
-0.000563125649932772,0.00230519962497056,1713350789.65329
-0.000527930329553783,0.00233181240037084,1713350789.68071
-0.000547499337699264,0.00230195419862866,1713350789.68172
-0.000552523822989315,0.00230721896514297,1713350789.75246
-0.000545503979083151,0.00230471882969141,1713350789.75364
-0.000576179707422853,0.00231433496810496,1713350789.78447
-0.00055211508879438,0.00231339735910296,1713350789.78532
-0.000556947255972773,0.00231265206821263,1713350789.86836
-0.000561490945983678,0.00231205113232136,1713350789.86958
-0.000578151026275009,0.00232669175602496,1713350789.89276
-0.000568582909181714,0.0023212106898427,1713350789.89382
-0.000582838896661997,0.00232659559696913,1713350789.91641
-0.000584040943067521,0.00232594646513462,1713350789.91757
-0.000586108420975506,0.00231435894966125,1713350789.94085
-0.000584089022595435,0.00233407225459814,1713350789.94215
-0.000573583296500146,0.00232301373034716,1713350789.96485
-0.00058307935250923,0.00232286937534809,1713350789.96584
-0.000602383865043521,0.00234217382967472,1713350789.99267
-0.000603946507908404,0.00232767756097019,1713350789.994
-0.000580194464419037,0.00232976907864213,1713350790.00874
-0.000583055312745273,0.00233635609038174,1713350790.01004
-0.000592743628658354,0.00233719754032791,1713350790.03649
-0.000615413882769644,0.00233561079949141,1713350790.03757
-0.000585555506404489,0.00232265307568014,1713350790.08835
-0.00057266978546977,0.00232690828852355,1713350790.08945
-0.000585771864280105,0.00233135558664799,1713350790.14076
-0.000593296543229371,0.00233448087237775,1713350790.1415
-0.000598032551351935,0.00233152392320335,1713350790.16049
-0.00062303472077474,0.0023170995991677,1713350790.16151
-0.000593777396716177,0.00231637852266431,1713350790.18449
-0.00058731046738103,0.00232267705723643,1713350790.18569
-0.00059507554396987,0.00234585208818316,1713350790.24031
-0.000620750884991139,0.00230839708819985,1713350790.24147
-0.000617048586718738,0.00231428700499237,1713350790.29689
-0.00059481110656634,0.00232106633484364,1713350790.29792
-0.000605509150773287,0.00230592070147395,1713350790.31704
-0.000591493502724916,0.00233392813242972,1713350790.31806
-0.000616495672147721,0.0022949343547225,1713350790.34091
-0.00058086757780984,0.00231604184955358,1713350790.34188
-0.000602552143391222,0.002326475456357,1713350790.42437
-0.000599907711148262,0.00231044040992856,1713350790.42506
-0.000565361464396119,0.00232770154252648,1713350790.44456
-0.000570337811950594,0.00233486550860107,1713350790.44574
-0.00060680735623464,0.00230940664187074,1713350790.50444
-0.000559279171284288,0.00232318183407187,1713350790.50521
-0.000600268307607621,0.00232438393868506,1713350790.52846
-0.000586276699323207,0.00232407147996128,1713350790.52933
-0.000540960289072245,0.00234794360585511,1713350790.55269
-0.000608201720751822,0.00231628236360848,1713350790.55348
-0.000578535662498325,0.0023225808981806,1713350790.57656
-0.000605004315730184,0.00234948215074837,1713350790.57739
-0.000566130736842752,0.00228678458370268,1713350790.67676
-0.000563125649932772,0.00231758039444685,1713350790.67796
-0.000552716141100973,0.00233741383999586,1713350790.70842
-0.000531800847966224,0.00235186237841845,1713350790.70924
-0.000589570263400674,0.00232409546151757,1713350790.73704
-0.000569544499740005,0.00230676215142012,1713350790.73774
-0.000569304102100432,0.0023027234710753,1713350790.75669
-0.000538700493052602,0.00229890085756779,1713350790.75783
-0.000601109757553786,0.00230558426119387,1713350790.78474
-0.000540142937097698,0.00230945483781397,1713350790.78591
-0.000549206219147891,0.00231488794088364,1713350790.81247
-0.000568582909181714,0.00231467164121568,1713350790.81363
-0.000552884419448674,0.00229805964045227,1713350790.83253
-0.000569616619031876,0.00230878172442317,1713350790.8337
-0.000535238650627434,0.00231135403737426,1713350790.88059
-0.000534397200681269,0.00230678636580706,1713350790.88165
-0.000548292649909854,0.00230671418830752,1713350790.90491
-0.000535743485670537,0.00231779692694545,1713350790.90548
-0.000542691210284829,0.00231152214109898,1713350790.98472
-0.000542138295713812,0.00231637852266431,1713350790.98591
-0.000558173342142254,0.00230919034220278,1713350791.00469
-0.000524829083587974,0.00231616199016571,1713350791.00573
-0.000533627928234637,0.00231032026931643,1713350791.03652
-0.000544566370081157,0.00230779591947794,1713350791.03725
-0.000528194766957313,0.00230205035768449,1713350791.06517
-0.000519468041602522,0.00230361288413405,1713350791.06583
-0.000508673838339746,0.00231241178698838,1713350791.13648
-0.000511871243361384,0.00230315607041121,1713350791.15225
-0.000514155079144985,0.0023024829570204,1713350791.1846
-0.000510308600496501,0.00231358967721462,1713350791.1854
-0.000511126010678709,0.00231032026931643,1713350791.20885
-0.00049867300549522,0.00230868556536734,1713350791.20993
-0.000514323357492685,0.00230736332014203,1713350791.23239
-0.000504538882523775,0.00231469562277198,1713350791.23313
-0.000491220387630165,0.0023248887155205,1713350791.2529
-0.000502591603435576,0.00233075465075672,1713350791.25455
-0.000500019232276827,0.00233056233264506,1713350791.33244
-0.000508745957631618,0.00232265307568014,1713350791.3335
-0.000495139043778181,0.00232628313824534,1713350791.35262
-0.000497206521686167,0.00233188457787037,1713350791.35371
-0.000505861127749085,0.00232202792540193,1713350791.3845
-0.000497543078381568,0.00232642749324441,1713350791.38559
-0.00049487454816699,0.00233448087237775,1713350791.40856
-0.000499634596053511,0.00233907275833189,1713350791.4095
-0.000496100634336472,0.00232786987908185,1713350791.45649
-0.000490306876599789,0.00232815835624933,1713350791.45766
-0.000493961037136614,0.00232885545119643,1713350791.49252
-0.000470305152703077,0.00234241434372962,1713350791.49392
-0.000508096884004772,0.00232820631936193,1713350791.5446
-0.000494946725666523,0.00232664379291236,1713350791.5459
-0.000484753516502678,0.00233755819499493,1713350791.56874
-0.000486027653096244,0.00234626093879342,1713350791.56999
-0.000492085877340287,0.00232070568017662,1713350791.65279
-0.000484585238154978,0.00234755896963179,1713350791.65397
-0.000470930186565965,0.00233053835108876,1713350791.67668
-0.000387124862754717,0.00235967547632754,1713350791.70046
-0.000474031432531774,0.0023520546965301,1713350791.72437
-0.000468021287815645,0.00235212664119899,1713350791.72563
-0.000479993468616158,0.00237491726875305,1713350791.75243
-0.000476844172226265,0.0023388082627207,1713350791.75326
-0.000463477626908571,0.00235087657347321,1713350791.77643
-0.000468958867713809,0.00235412199981511,1713350791.77734
-0.000490090518724173,0.00235883402638137,1713350791.86044
-0.000437609996879473,0.00235768011771142,1713350791.86159
-0.000442826800281182,0.00236566155217588,1713350791.89251
-0.000479704991448671,0.00236061308532953,1713350791.89387
-0.000472492829430848,0.00236186315305531,1713350791.9086
-0.000451409287052229,0.00237289769575,1713350791.91009
-0.000448380160378292,0.00237013306468725,1713350791.93648
-0.000484993914142251,0.00237186392769217,1713350791.9375
-0.000497975794132799,0.00236119003966451,1713350791.99308
-0.000465232587885112,0.0023797252215445,1713350791.99441
-0.000454582623206079,0.00237385928630829,1713350792.03233
-0.000458116584923118,0.00238080718554556,1713350792.03302
-0.000479897309560329,0.0023914088960737,1713350792.07247
-0.000431431573815644,0.0023690271191299,1713350792.07432
-0.000455351924756542,0.00236881081946194,1713350792.09683
-0.000447130063548684,0.00236905133351684,1713350792.09804
-0.000466650992166251,0.00237734522670507,1713350792.14452
-0.000460785086033866,0.00236258446238935,1713350792.14624
-0.000435999274486676,0.00236539705656469,1713350792.17646
-0.000455039407825097,0.00237335450947285,1713350792.17763
-0.000451986241387203,0.00236532487906516,1713350792.22039
-0.000444629840785638,0.00237554218620062,1713350792.22213
-0.000453092099633068,0.00238763471134007,1713350792.26897
-0.000425661855842918,0.00236994074657559,1713350792.27042
-0.000410973094403744,0.00238624028861523,1713350792.29644
-0.000434316461905837,0.00236357003450394,1713350792.29751
-0.00042282507638447,0.00238042254932225,1713350792.37271
-0.000442730641225353,0.00239417352713644,1713350792.37396
-0.000438042741734535,0.00237306603230536,1713350792.38063
-0.000420541211497039,0.00237626349553466,1713350792.38178
-0.000450664025265723,0.00238895672373474,1713350792.42865
-0.000390202039852738,0.00238256203010678,1713350792.42959
-0.000422488490585238,0.00238352362066507,1713350792.45657
-0.000430734420660883,0.0023612380027771,1713350792.4578
-0.000408905587391928,0.00236616632901132,1713350792.4932
-0.000429724692367017,0.00237703276798129,1713350792.49438
-0.000392990768887103,0.00233166827820241,1713350792.55692
-0.000429892999818549,0.00231440714560449,1713350792.55815
-0.000421791337430477,0.00235388171859086,1713350792.58509
-0.000405371625674889,0.00236864248290658,1713350792.58631
-0.000431936437962577,0.00235212664119899,1713350792.61396
-0.000410227832617238,0.00236746459268033,1713350792.61563
-0.000389336579246446,0.00235847337171435,1713350792.70043
-0.000393231166526675,0.00236229598522186,1713350792.70155
-0.000403424346586689,0.00237845117226243,1713350792.72443
-0.000421166274463758,0.00233255769126117,1713350792.72578
-0.000404361926484853,0.00236549321562052,1713350792.73298
-0.000402558885980397,0.00236453162506223,1713350792.73419
-0.00041938727372326,0.00235811271704733,1713350792.80046
-0.000392317626392469,0.00236667133867741,1713350792.80164
-0.000387317180866376,0.00236400263383985,1713350792.83296
-0.000410708627896383,0.00236304104328156,1713350792.83401
-0.000424724275944755,0.00234794360585511,1713350792.89686
-0.000389625085517764,0.0023637383710593,1713350792.89814
-0.000395515002310276,0.00236472394317389,1713350792.90478
-0.000429556414019316,0.00234477035701275,1713350792.90662
-0.000421839416958392,0.00235085259191692,1713350792.94085
-0.000395154405850917,0.00235414621420205,1713350792.94227
-0.000397654628613964,0.00235900236293674,1713350792.98447
-0.000398159463657066,0.00236409902572632,1713350792.98612
-0.000421598990214989,0.00237621529959142,1713350793.01292
-0.000393375405110419,0.00235272780992091,1713350793.01392
-0.000397390162106603,0.00236405082978308,1713350793.08549
-0.000400779885239899,0.00235967547632754,1713350793.08595
-0.000404049409553409,0.00234782346524298,1713350793.13255
-0.000420252734329551,0.00236472394317389,1713350793.13373
-0.000395490962546319,0.00236188713461161,1713350793.15664
-0.000415805232478306,0.0023591706994921,1713350793.15824
-0.000409747008234262,0.00235364120453596,1713350793.19673
-0.000406140927225351,0.00236361799761653,1713350793.19793
-0.000410155713325366,0.00236344989389181,1713350793.22118
-0.000423137593315914,0.00235811271704733,1713350793.22222
-0.000404746591812,0.00235167006030679,1713350793.26902
-0.00040227040881291,0.00236520473845303,1713350793.27024
-0.000411405810154974,0.00237085437402129,1713350793.29247
-0.000406645791372284,0.00237309001386166,1713350793.29366
-0.000425685895606875,0.00236616632901132,1713350793.3923
-0.000433426961535588,0.00236977241002023,1713350793.39338
-0.000419315154431388,0.00237046973779798,1713350793.42064
-0.00041981998947449,0.00238330732099712,1713350793.42182
-0.000428618834121153,0.00237715290859342,1713350793.44071
-0.000447226222604513,0.00236909929662943,1713350793.44209
-0.000420517171733081,0.00238619209267199,1713350793.47291
-0.000430902699008584,0.00236869067884982,1713350793.4739
-0.000411958753829822,0.00239729881286621,1713350793.49644
-0.000451409287052229,0.00238429289311171,1713350793.49775
-0.000425373378675431,0.00238648056983948,1713350793.5406
-0.000424075173214078,0.00240333308465779,1713350793.54197
-0.000444461562437937,0.00240354938432574,1713350793.5683
-0.000464679644210264,0.00238857208751142,1713350793.56944
-0.000442105578258634,0.00240549677982926,1713350793.65274
-0.000425541657023132,0.0023930196184665,1713350793.65392
-0.000374479539459571,0.00241566589102149,1713350793.68464
-0.000452467065770179,0.00241585820913315,1713350793.68587
-0.000443596101831645,0.00238155224360526,1713350793.76425
-0.000413064612075686,0.00241092988289893,1713350793.76511
-0.000452418986242265,0.00239080796018243,1713350793.79271
-0.000431623921031132,0.00241251662373543,1713350793.79394
-0.00041082882671617,0.00241956044919789,1713350793.81663
-0.00036928677582182,0.00241124234162271,1713350793.81777
-0.000482229253975675,0.00238883658312261,1713350793.84035
-0.00043085461948067,0.00239350041374564,1713350793.84159
-0.00040765549056232,0.00240616989322007,1713350793.86832
-0.000460352370282635,0.00242504174821079,1713350793.86952
-0.000401164550567046,0.00238508637994528,1713350793.91649
-0.000390322267776355,0.00240112142637372,1713350793.91746
-0.000438355258665979,0.00238511036150157,1713350793.94452
-0.000401380908442661,0.00238936557434499,1713350793.9452
-0.000459222443168983,0.00240948749706149,1713350793.97256
-0.000438162940554321,0.00236621452495456,1713350793.97333
-0.000445711659267545,0.00237785000354052,1713350794.02048
-0.00041479553328827,0.00238477368839085,1713350794.0216
-0.000419795949710533,0.00238306680694222,1713350794.06847
-0.000439797702711076,0.00235392968170345,1713350794.06982
-0.000378494296455756,0.00238756253384054,1713350794.09265
-0.000416790891904384,0.00237520574592054,1713350794.09378
-0.000492903229314834,0.00241756509058177,1713350794.15249
-0.000383975537260994,0.0023820090573281,1713350794.15352
-0.000378253898816183,0.00239309179596603,1713350794.17641
-0.000376883603166789,0.00239100027829409,1713350794.17738
-0.000415180169511586,0.00236066104844213,1713350794.21273
-0.000391283887438476,0.00239573628641665,1713350794.21389
-0.000444822158897296,0.00239287549629807,1713350794.29687
-0.000379864621208981,0.00238645658828318,1713350794.29877
-0.00040174150490202,0.00238539883866906,1713350794.36459
-0.000423137593315914,0.00237183994613588,1713350794.3663
-0.000350487069226801,0.002406025538221,1713350794.38453
-0.000334139505866915,0.002382249571383,1713350794.38568
-0.000429508334491402,0.00239253882318735,1713350794.40906
-0.000344573112670332,0.00239715469069779,1713350794.40998
-0.000469079066533595,0.00239835679531097,1713350794.45272
-0.000420324853621423,0.00235248729586601,1713350794.47231
-0.000365151820005849,0.00239025498740375,1713350794.50092
-0.000393447524402291,0.00236539705656469,1713350794.50216
-0.000360391772119328,0.00237986957654357,1713350794.52495
-0.000319522863719612,0.00239376490935683,1713350794.52609
-0.000438763934653252,0.00236489227972925,1713350794.5325
-0.000378686643671244,0.00237188814207911,1713350794.53359
-0.000359718629624695,0.00238198507577181,1713350794.58085
-0.000342505605658516,0.0024023475125432,1713350794.58191
-0.000411117332987487,0.00237385928630829,1713350794.60459
-0.00036399785312824,0.00238099950365722,1713350794.60587
-0.000380177138140425,0.00239198585040867,1713350794.64457
-0.000399000884499401,0.00236482010222971,1713350794.64575
-0.000425806094426662,0.0023959765676409,1713350794.69291
-0.000406164966989309,0.00237407581880689,1713350794.69401
-0.000386523839551955,0.00236662314273417,1713350794.74056
-0.000388903863495216,0.00237792218104005,1713350794.74159
-0.000403809011913836,0.00237313820980489,1713350794.76842
-0.00038524970295839,0.00235775229521096,1713350794.76967
-0.000390706903999671,0.00237554218620062,1713350794.80902
-0.000413256930187345,0.0023635218385607,1713350794.81013
-0.000384624639991671,0.00235479511320591,1713350794.85655
-0.000392582063795999,0.00235775229521096,1713350794.85777
-0.000389889522921294,0.0023682820610702,1713350794.91281
-0.000414627254940569,0.00235707918182015,1713350794.9138
-0.000385634339181706,0.00236075720749795,1713350794.96824
-0.000400803925003856,0.00236104568466544,1713350794.96944
-0.000404289807192981,0.00236044474877417,1713350794.98448
-0.000404530204832554,0.00236655096523464,1713350794.99227
-0.000412343390053138,0.00236385851167142,1713350795.02484
-0.000420685450080782,0.00235609337687492,1713350795.02605
-0.000424483878305182,0.00237179198302329,1713350795.07668
-0.000394288945244625,0.00236695981584489,1713350795.07788
-0.000423642457462847,0.00235695880837739,1713350795.09658
-0.000410973094403744,0.00236695981584489,1713350795.09779
-0.000413761794334278,0.00236006011255085,1713350795.16455
-0.000415156129747629,0.00235924264416099,1713350795.16565
-0.000457635789643973,0.00235679047182202,1713350795.18874
-0.000401813624193892,0.00236496445722878,1713350795.18956
-0.000416430295445025,0.00236753677017987,1713350795.21239
-0.000418834330048412,0.00236871466040611,1713350795.21321
-0.000432609580457211,0.00236445944756269,1713350795.25253
-0.000411742366850376,0.00239222636446357,1713350795.25328
-0.000439797702711076,0.00236681546084583,1713350795.30855
-0.000437922542914748,0.00237787421792746,1713350795.30981
-0.000435278081567958,0.00236986856907606,1713350795.33651
-0.000415805232478306,0.00239088013768196,1713350795.33772
-0.000430926738772541,0.00237753754481673,1713350795.38125
-0.000449774524895474,0.00237551820464432,1713350795.38236
-0.000455856788903475,0.00239270715974271,1713350795.41244
-0.000361954414984211,0.00238143210299313,1713350795.41434
-0.000436071393778548,0.00236748857423663,1713350795.46457
-0.000437105161836371,0.00237321038730443,1713350795.46578
-0.000464944110717624,0.00239859707653522,1713350795.49669
-0.000367507775081322,0.00237998971715569,1713350795.49788
-0.000399409589590505,0.00239191390573978,1713350795.53242
-0.000439100520452485,0.00237984536215663,1713350795.55411
-0.000458429101854563,0.00239977496676147,1713350795.56911
-0.000427537015639246,0.00238006189465523,1713350795.5701
-0.000447562779299915,0.00237823463976383,1713350795.641
-0.00045501536806114,0.0023712869733572,1713350795.6424
-0.000412102992413566,0.00239631324075162,1713350795.66882
-0.000460015784483403,0.00235359324142337,1713350795.66995
-0.000436840695329011,0.00237034936435521,1713350795.69241
-0.000434268353274092,0.00236573372967541,1713350795.69334
-0.00038895194302313,0.00237708073109388,1713350795.75242
-0.000448692706413567,0.00236061308532953,1713350795.75382
-0.000370007997844368,0.00238369195722044,1713350795.77651
-0.00043313845526427,0.00236857053823769,1713350795.77748
-0.000440687203081325,0.00235138135030866,1713350795.85298
-0.000372796697774902,0.00237147929146886,1713350795.85419
-0.000386956584407017,0.00237383530475199,1713350795.86061
-0.000460496608866379,0.00234491447918117,1713350795.86181
-0.000419363233959302,0.00237318617291749,1713350795.9084
-0.000410973094403744,0.00236883480101824,1713350795.90925
-0.000424243451561779,0.0023521026596427,1713350795.94042
-0.000410684588132426,0.0023783550132066,1713350795.94153
-0.000424099212978035,0.00236652698367834,1713350795.96466
-0.000442682561697438,0.0023767442908138,1713350795.96577
-0.000393832160625607,0.00237157545052469,1713350796.02075
-0.000405948609113693,0.00236921943724155,1713350796.02172
-0.000409170053899288,0.00237467675469816,1713350796.06453
-0.000378037540940568,0.00236945995129645,1713350796.06569
-0.000463092990685254,0.00236150249838829,1713350796.08464
-0.000433979876106605,0.0023728737141937,1713350796.08568
-0.000420036376453936,0.00237482087686658,1713350796.1647
-0.000365223939297721,0.00236982060596347,1713350796.16583
-0.000423161633079872,0.00235868990421295,1713350796.18913
-0.000372604379663244,0.00236842618323863,1713350796.1903
-0.000404458085540682,0.00238636042922735,1713350796.21261
-0.000432633620221168,0.0023767922539264,1713350796.21359
-0.000400491408072412,0.00233020167797804,1713350796.26041
-0.000406140927225351,0.00234039500355721,1713350796.26176
-0.00038815860170871,0.0023505159188062,1713350796.3245
-0.000418521813116968,0.00235900236293674,1713350796.32564
-0.00037520076148212,0.00233671674504876,1713350796.34048
-0.000368108798284084,0.00234465021640062,1713350796.34181
-0.000385898805689067,0.0023381111677736,1713350796.37649
-0.000386475760024041,0.0023374380543828,1713350796.37729
-0.000446000165538862,0.00230688252486289,1713350796.42039
-0.000391091540222988,0.00233404827304184,1713350796.42131
-0.0003927503421437,0.00233147596009076,1713350796.47242
-0.000388182641472667,0.00232823053374887,1713350796.47353
-0.000397654628613964,0.00232337415218353,1713350796.49355
-0.00039856816874817,0.00233539449982345,1713350796.4941
-0.000388278800528497,0.00235282396897674,1713350796.54861
-0.000398351781768724,0.00233183661475778,1713350796.54957
-0.000398447969928384,0.0023280621971935,1713350796.5692
-0.000402294448576868,0.00232438393868506,1713350796.57087
-0.000407342973630875,0.00232366262935102,1713350796.62471
-0.000394240865716711,0.00232551386579871,1713350796.62583
-0.000405972648877651,0.00231123366393149,1713350796.6888
-0.000405828410293907,0.00231214729137719,1713350796.68992
-0.000403784972149879,0.00232010474428534,1713350796.75268
-0.000389024062315002,0.00232169148512185,1713350796.75378
-0.000404770631575957,0.00231842184439301,1713350796.77286
-0.000411718327086419,0.00232347031123936,1713350796.77402
-0.000389673165045679,0.00232565798796713,1713350796.83234
-0.000401981931645423,0.00233385595493019,1713350796.83351
-0.000399457669118419,0.00232710060663521,1713350796.86431
-0.000404698512284085,0.00232476857490838,1713350796.8653
-0.000408569030696526,0.00232659559696913,1713350796.90081
-0.000405131228035316,0.00232313387095928,1713350796.90194
-0.000388182641472667,0.00231459946371615,1713350796.90301
-0.000401453027734533,0.00232943240553141,1713350796.9045
-0.000407415092922747,0.00232960074208677,1713350796.96108
-0.000397750787669793,0.00233926507644355,1713350796.96204
-0.00040068372618407,0.0023241916205734,1713350796.97244
-0.000388711545383558,0.00234174123033881,1713350796.97382
-0.00041135773062706,0.00233416841365397,1713350797.03449
-0.000412776134908199,0.0023219317663461,1713350797.03465
-0.000395971786929294,0.00233121146447957,1713350797.09254
-0.000405467784730718,0.0023342645727098,1713350797.09374
-0.000435278081567958,0.00233873608522117,1713350797.10083
-0.00036796455970034,0.0023498188238591,1713350797.1019
-0.000458861846709624,0.00234380876645446,1713350797.12429
-0.000406501552788541,0.00233844760805368,1713350797.12515
-0.000419723830418661,0.00233327900059521,1713350797.18054
-0.000464751763502136,0.00235705496743321,1713350797.18144
-0.000361497630365193,0.00233621196821332,1713350797.21643
-0.000387317180866376,0.0023218838032335,1713350797.21759
-0.000409747008234262,0.00233472138643265,1713350797.26476
-0.000418690091464669,0.00233431276865304,1713350797.26595
-0.000377676915377378,0.00235407403670251,1713350797.30836
-0.000393832160625607,0.00233772653155029,1713350797.30954
-0.000404914870159701,0.00234142877161503,1713350797.35253
-0.000418473733589053,0.00233960151672363,1713350797.35354
-0.000441817101091147,0.00234623672440648,1713350797.38085
-0.000460905284853652,0.00236520473845303,1713350797.38201
-0.000402679084800184,0.00232448009774089,1713350797.41678
-0.000421935576014221,0.00233075465075672,1713350797.41773
-0.000444124976638705,0.00233532232232392,1713350797.44898
-0.00041955555207096,0.00235272780992091,1713350797.45003
-0.000410708627896383,0.00232046539895236,1713350797.50876
-0.000413521367590874,0.00234275101684034,1713350797.50997
-0.000415204209275544,0.00233707739971578,1713350797.53283
-0.00041109329322353,0.00232286937534809,1713350797.53387
-0.00045765982940793,0.002333591459319,1713350797.57771
-0.000399000884499401,0.00232173944823444,1713350797.57924
-0.000413112691603601,0.00231609004549682,1713350797.62043
-0.00046479984303005,0.00234013050794601,1713350797.62159
-0.000369719520676881,0.0023141426499933,1713350797.67643
-0.000391548324842006,0.00231794104911387,1713350797.67727
-0.000409025786211714,0.0023242156021297,1713350797.7243
-0.000408665189752355,0.00231806118972599,1713350797.72546
-0.000415877351770178,0.00231974408961833,1713350797.79673
-0.000415348447859287,0.00230861338786781,1713350797.82033
-0.000377773103537038,0.00231782090850174,1713350797.8729
-0.000397173804230988,0.00231700344011188,1713350797.87402
-0.000383590901037678,0.00230940664187074,1713350797.89722
-0.000412102992413566,0.00230774795636535,1713350797.89829
-0.000397438241634518,0.00231921533122659,1713350797.91262
-0.000382653321139514,0.00233077863231301,1713350797.91351
-0.000408376712584868,0.00230385339818895,1713350797.93274
-0.000389985681977123,0.00230029528029263,1713350797.93384
-0.000375537318177521,0.00230414187535644,1713350797.96877
-0.000397798867197707,0.00232169148512185,1713350797.97002
-0.000371811038348824,0.00234082760289311,1713350797.99679
-0.000411045213695616,0.0023011127486825,1713350797.99778
-0.000386595958843827,0.00228594313375652,1713350798.06902
-0.000397053605411202,0.00229851622134447,1713350798.07029
-0.000414074311265722,0.00231132982298732,1713350798.12065
-0.000408929627155885,0.00231092120520771,1713350798.12162
-0.000386355561204255,0.00231697945855558,1713350798.20046
-0.000393687922041863,0.00230450229719281,1713350798.20156
-0.000386139203328639,0.0023056804202497,1713350798.22453
-0.000405083148507401,0.0023251292295754,1713350798.22564
-0.000395442883018404,0.00231260410510004,1713350798.24866
-0.000367652013665065,0.0023273890838027,1713350798.24988
-0.000408064166549593,0.00230279541574419,1713350798.2767
-0.000404265767429024,0.00231111352331936,1713350798.27765
-0.000401332828914747,0.00230986345559359,1713350798.30453
-0.000383013917598873,0.002314118668437,1713350798.30576
-0.000373734277673066,0.00232335017062724,1713350798.32444
-0.00039856816874817,0.00231979228556156,1713350798.37655
-0.000402943551307544,0.00231892662122846,1713350798.41268
-0.000375609437469393,0.00231830170378089,1713350798.41372
-0.000391740642953664,0.00230921432375908,1713350798.43639
-0.00037520076148212,0.00231669098138809,1713350798.43734
-0.000419868069002405,0.00231051258742809,1713350798.46048
-0.000382461003027856,0.00231084902770817,1713350798.4617
-0.000390875182347372,0.00230092043057084,1713350798.48828
-0.000387870124541223,0.00231760460883379,1713350798.48931
-0.000387485459214076,0.00231108954176307,1713350798.50819
-0.000379191478714347,0.00231152214109898,1713350798.50922
-0.00037854237598367,0.00230935867875814,1713350798.55669
-0.000370272435247898,0.00230029528029263,1713350798.55744
-0.000410636508604512,0.00230791606009006,1713350798.58437
-0.000356184697011486,0.00231077708303928,1713350798.58544
-0.000374407420167699,0.00231012795120478,1713350798.61658
-0.000390875182347372,0.00232354248873889,1713350798.61763
-0.000418449693825096,0.00230733910575509,1713350798.65621
-0.000381908059353009,0.0023118348326534,1713350798.65739
-0.000371113856090233,0.00232248473912477,1713350798.71283
-0.000398976844735444,0.00232383096590638,1713350798.71382
-0.000388711545383558,0.00232310988940299,1713350798.7409
-0.000376330659491941,0.00231582554988563,1713350798.74191
-0.000367916480172425,0.00231767655350268,1713350798.76832
-0.000385634339181706,0.00231565721333027,1713350798.76933
-0.000373085174942389,0.00234025064855814,1713350798.81631
-0.000411598128266633,0.00233537051826715,1713350798.81706
-0.000371642760001123,0.00233736587688327,1713350798.89675
-0.000359285913873464,0.00234580412507057,1713350798.94064
-0.000370464753359556,0.0023365723900497,1713350798.97684
-0.000422440411057323,0.00235397787764668,1713350798.97811
-0.0003037522546947,0.0023326778318733,1713350798.99674
-0.000411934714065865,0.00233561079949141,1713350798.99787
-0.000392461864976212,0.00234166905283928,1713350799.04065
-0.000383013917598873,0.00237073400057852,1713350799.04162
-0.000422344252001494,0.00235556461848319,1713350799.0929
-0.000343827850883827,0.00234931404702365,1713350799.09398
-0.000365344138117507,0.00233416841365397,1713350799.11677
-0.000389144261134788,0.00236171879805624,1713350799.11774
-0.000365921092452481,0.00236094952560961,1713350799.21296
-0.000359045516233891,0.00235719932243228,1713350799.21399
-0.000366305757779628,0.00236080540344119,1713350799.26076
-0.000349813926732168,0.00238309102132916,1713350799.26208
-0.00036743565578945,0.00235719932243228,1713350799.28854
-0.000398760486859828,0.00236068526282907,1713350799.28906
-0.00035279497387819,0.00235580489970744,1713350799.29682
-0.000355727912392467,0.00236241612583399,1713350799.2978
-0.000375320960301906,0.00235969945788383,1713350799.31693
-0.000349068694049492,0.00234993896447122,1713350799.31801
-0.000371570640709251,0.0023442895617336,1713350799.34482
-0.000422320212237537,0.00233979383483529,1713350799.34604
-0.000340870872605592,0.00233803899027407,1713350799.40508
-0.000331519084284082,0.00234849657863379,1713350799.40565
-0.00041347328806296,0.00231933547183871,1713350799.42861
-0.00037784522282891,0.00232859095558524,1713350799.42991
-0.000369142537238076,0.00232481677085161,1713350799.51237
-0.000370633060811087,0.0023196479305625,1713350799.51351
-0.000349837966496125,0.00230882968753576,1713350799.5607
-0.000340967031661421,0.00231664278544486,1713350799.56192
-0.000373926595784724,0.00232390314340591,1713350799.58086
-0.000338130223099142,0.00230462267063558,1713350799.58197
-0.000328153400914744,0.00231637852266431,1713350799.61279
-0.000339981372235343,0.00234085181728005,1713350799.61384
-0.000429532374255359,0.00231868634000421,1713350799.67661
-0.000280240608844906,0.00233077863231301,1713350799.6777
-0.000324907945469022,0.00232996139675379,1713350799.69656
-0.000340702565154061,0.00232866313308477,1713350799.69757
-0.000370368594303727,0.00231320504099131,1713350799.73691
-0.000390730943763629,0.00232991320081055,1713350799.7382
-0.000337961944751441,0.00230717100203037,1713350799.78467
-0.000303559936583042,0.00231077708303928,1713350799.78591
-0.000340606406098232,0.00231164251454175,1713350799.81288
-0.000360031175659969,0.00234984280541539,1713350799.81391
-0.000329523725667968,0.00230344454757869,1713350799.88493
-0.000360151374479756,0.00230101658962667,1713350799.88607
-0.000328946742229164,0.00230894982814789,1713350799.91284
-0.000360632198862731,0.00232137879356742,1713350799.91407
-0.000351328490069136,0.00234210188500583,1713350799.92848
-0.000318825681461021,0.00232623494230211,1713350799.92934
-0.000324162683682516,0.00233698124065995,1713350799.95242
-0.000328970781993121,0.00232301373034716,1713350799.95359
-0.000309113296680152,0.00234469817951322,1713350799.98486
-0.000348347472026944,0.00231553707271814,1713350799.98593
-0.000330365146510303,0.00232217228040099,1713350800.05632
-0.000336134864483029,0.00232137879356742,1713350800.05738
-0.000377172080334276,0.00232142698951066,1713350800.08438
-0.000310507661197335,0.00233077863231301,1713350800.08545
-0.000322311563650146,0.00231652264483273,1713350800.11249
-0.000315796583890915,0.00231440714560449,1713350800.11418
-0.00030834399512969,0.00233347131870687,1713350800.13244
-0.0003360387054272,0.00233666854910552,1713350800.13356
-0.000305411056615412,0.0023280621971935,1713350800.15256
-0.000328898662701249,0.00231532054021955,1713350800.1533
-0.000305218738503754,0.00232909596525133,1713350800.17667
-0.000344597152434289,0.00233020167797804,1713350800.17788
-0.00030913733644411,0.00232565798796713,1713350800.26441
-0.000331206567352638,0.00232409546151757,1713350800.26519
-0.000341471866704524,0.00232395110651851,1713350800.31696
-0.00032774472492747,0.00231248396448791,1713350800.31813
-0.000350511108990759,0.0023164504673332,1713350800.33704
-0.000319042039336637,0.00232599466107786,1713350800.33859
-0.000315195560688153,0.00232770154252648,1713350800.36882
-0.000327768764691427,0.00232630711980164,1713350800.37002
-0.000352193950675428,0.0023093344643712,1713350800.38869
-0.000342169048963115,0.00232270103879273,1713350800.3902
-0.000314209901262075,0.00231313286349177,1713350800.42481
-0.000326879264321178,0.00232306169345975,1713350800.42607
-0.000335822347551584,0.00232919212430716,1713350800.5089
-0.000338514888426289,0.00232457625679672,1713350800.5102
-0.000313705037115142,0.00232770154252648,1713350800.52435
-0.000314474338665605,0.00231979228556156,1713350800.52541
-0.000357266515493393,0.00231820554472506,1713350800.57267
-0.000332096067722887,0.00232972088269889,1713350800.57445
-0.000331543124048039,0.00233092298731208,1713350800.66879
-0.000322119245538488,0.00234645325690508,1713350800.67047
-0.000385033345082775,0.00231459946371615,1713350800.69271
-0.000321157625876367,0.00232673995196819,1713350800.69386
-0.000348684028722346,0.0023264994379133,1713350800.72103
-0.000296443933621049,0.00234267883934081,1713350800.72211
-0.000374647817807272,0.00233077863231301,1713350800.74912
-0.000351160211721435,0.00234246230684221,1713350800.75029
-0.000366401916835457,0.00235239113681018,1713350800.76827
-0.000327023502904922,0.0023333509452641,1713350800.76938
-0.000364719075150788,0.00233224523253739,1713350800.79641
-0.00035385275259614,0.00234847259707749,1713350800.79768
-0.000344573112670332,0.00232844683341682,1713350800.82113
-0.000263508380157873,0.00235246331430972,1713350800.82241
-0.000374743976863101,0.0023333509452641,1713350800.84053
-0.000332576863002032,0.00233448087237775,1713350800.84151
-0.000328057241858914,0.00235246331430972,1713350800.89242
-0.000331422925228253,0.00236974842846394,1713350800.89323
-0.00039936151006259,0.00230813259258866,1713350800.94448
-0.000334692449541762,0.00233969767577946,1713350800.94522
-0.000342361367074773,0.00233777449466288,1713350800.97264
-0.000308368034893647,0.00233964971266687,1713350800.9735
-0.00036390169407241,0.00233484152704477,1713350801.01267
-0.000329355447320268,0.00232505705207586,1713350801.01401
-0.000314979202812538,0.00233464920893311,1713350801.0406
-0.000396957446355373,0.00231349351815879,1713350801.06865
-0.00033577426802367,0.00233561079949141,1713350801.09673
-0.000229683340876363,0.00234436173923314,1713350801.09794
-0.000382268684916198,0.00232673995196819,1713350801.15692
-0.000347650289768353,0.00231476780027151,1713350801.15791
-0.000267114461166784,0.00231584953144193,1713350801.17656
-0.000342241168254986,0.00232017692178488,1713350801.17734
-0.0002976699906867,0.00231128185987473,1713350801.20063
-0.000330148788634688,0.00233003357425332,1713350801.20173
-0.000295241916319355,0.00229498231783509,1713350801.30513
-0.000297910417430103,0.00232702842913568,1713350801.3062
-0.000288149953121319,0.00231387815438211,1713350801.32843
-0.000292357028229162,0.00232782168313861,1713350801.33011
-0.00026247464120388,0.00234380876645446,1713350801.35683
-0.000319066079100594,0.00234128441661596,1713350801.35807
-0.000261200504610315,0.00233498588204384,1713350801.38465
-0.000248483062023297,0.00233491370454431,1713350801.38583
-0.000304305198369548,0.00233491370454431,1713350801.40459
-0.000278052932117134,0.00235450663603842,1713350801.40576
-0.000296852609608322,0.00233250972814858,1713350801.45624
-0.000289664487354457,0.0023111857008189,1713350801.4577
-0.00030295891338028,0.00229885289445519,1713350801.48461
-0.000311156734824181,0.00237306603230536,1713350801.48577
-0.000244708673562855,0.00233116326853633,1713350801.56042
-0.000319739221595228,0.00232159532606602,1713350801.5618
-0.000281947490293533,0.00232149916701019,1713350801.58932
-0.000262138084508479,0.00235941098071635,1713350801.59098
-0.000346183805959299,0.0023372215218842,1713350801.64453
-0.000319258397212252,0.00234001036733389,1713350801.66828
-0.000280216569080949,0.00235582888126373,1713350801.69281
-0.000283101428067312,0.00233671674504876,1713350801.69411
-0.00026168129988946,0.00234950636513531,1713350801.74427
-0.000266994262346998,0.00231063272804022,1713350801.7455
-0.000290890573523939,0.0023251292295754,1713350801.79673
-0.000251319841481745,0.0023582810536027,1713350801.79742
-0.000321446103043854,0.00233594747260213,1713350801.8165
-0.000267186580458656,0.00232854299247265,1713350801.81777
-0.000266417308012024,0.00232736486941576,1713350801.88074
-0.000261248584138229,0.00234260666184127,1713350801.88177
-0.000335918506607413,0.00234854477457702,1713350801.90842
-0.000261921726632863,0.0023008722346276,1713350801.90969
-0.000292669574264437,0.00232683611102402,1713350801.93298
-0.000240165027207695,0.00235041975975037,1713350801.93414
-0.000366233638487756,0.00236369017511606,1713350802.01655
-0.000335461721988395,0.00233734189532697,1713350802.01769
-0.000329115020576864,0.00231236359104514,1713350802.04083
-0.000305651454254985,0.00233839964494109,1713350802.04196
-0.000221389360376634,0.00236188713461161,1713350802.06489
-0.000389480846934021,0.00229808362200856,1713350802.0662
-0.000215571548324078,0.00229536695405841,1713350802.12471
-0.000260214845184237,0.00233690906316042,1713350802.12592
-0.000253964302828535,0.00234577991068363,1713350802.16073
-0.000260431203059852,0.00237208046019077,1713350802.16173
-0.000285625690594316,0.00229476601816714,1713350802.1843
-0.000255238439422101,0.00234633288346231,1713350802.1855
-0.000252569938311353,0.00235635787248611,1713350802.23253
-0.000253363279625773,0.00236974842846394,1713350802.25675
-0.000343755731591955,0.00231880648061633,1713350802.28519
-0.000251752557232976,0.00234717433340847,1713350802.28631
-0.00026353241992183,0.00235224701464176,1713350802.3406
-0.000266297080088407,0.0023495543282479,1713350802.34182
-0.000218071771087125,0.00238220137543976,1713350802.3925
-0.000299857696518302,0.00236818590201437,1713350802.39369
-0.000284207286313176,0.00234445789828897,1713350802.42078
-0.000276730686891824,0.00235328054986894,1713350802.42156
-0.000289977033389732,0.00234707817435265,1713350802.46476
-0.000225356052396819,0.00241001625545323,1713350802.46601
-0.000315315759507939,0.00234188535250723,1713350802.50865
-0.00028894329443574,0.00235436251387,1713350802.50984
-0.000288198032649234,0.00236371415667236,1713350802.53258
-0.000283534172922373,0.0023420536890626,1713350802.53432
-0.000300915475236252,0.00237602298147976,1713350802.56474
-0.000319306476740167,0.00233551464043558,1713350802.56575
-0.000299929815810174,0.00235736765898764,1713350802.58908
-0.000299040315439925,0.00236393068917096,1713350802.5903
-0.000234491453738883,0.00236970046535134,1713350802.61675
-0.000392558024032041,0.00238123978488147,1713350802.61767
-0.000291203090455383,0.00235912250354886,1713350802.6489
-0.000301684776786715,0.00235907454043627,1713350802.64993
-0.0003583483339753,0.00235580489970744,1713350802.6968
-0.000299833656754345,0.00236472394317389,1713350802.69815
-0.000297501712338999,0.00234953034669161,1713350802.74852
-0.000302381959045306,0.00235323258675635,1713350802.74968
-0.00030084335594438,0.0023582810536027,1713350802.84839
-0.000339500547852367,0.00232784566469491,1713350802.84961
-0.000333658681483939,0.00233491370454431,1713350802.87236
-0.000297477672575042,0.00234236614778638,1713350802.8733
-0.000312478980049491,0.0023433999158442,1713350802.89703
-0.000314137781970203,0.00233642826788127,1713350802.89859
-0.000333009607857093,0.00232859095558524,1713350802.9327
-0.000307743001030758,0.00232623494230211,1713350802.9338
-0.000321950938086957,0.0023333509452641,1713350802.95678
-0.000321878818795085,0.00233320682309568,1713350802.95785
-0.000333851028699428,0.00234760716557503,1713350803.0282
-0.000283702451270074,0.00233181240037084,1713350803.02916
-0.000323008745908737,0.00232077785767615,1713350803.05661
-0.000308055517962202,0.00233916891738772,1713350803.0575
-0.000287669128738344,0.00232637929730117,1713350803.08442
-0.000287765287794173,0.00233236537314951,1713350803.08561
-0.000310892297420651,0.00233214907348156,1713350803.13243
-0.000332312425598502,0.00232936022803187,1713350803.13348
-0.000326278241118416,0.00234707817435265,1713350803.18076
-0.000339596706908196,0.00232926406897604,1713350803.18194
-0.000324763706885278,0.00234236614778638,1713350803.20467
-0.000304136920021847,0.00236200727522373,1713350803.20564
-0.000309570081299171,0.00233784667216241,1713350803.24105
-0.000335461721988395,0.00235087657347321,1713350803.24226
-0.000291058851871639,0.00235409801825881,1713350803.26467
-0.000317166879540309,0.00234690983779728,1713350803.26595
-0.000313296361127868,0.00233085080981255,1713350803.31234
-0.000317551544867456,0.00232986523769796,1713350803.31377
-0.000317407277179882,0.00234008231200278,1713350803.44442
-0.000319066079100594,0.00233936123549938,1713350803.44569
-0.000341760343872011,0.0023413326125592,1713350803.4646
-0.000336134864483029,0.00234409724362195,1713350803.46578
-0.000326927343849093,0.00233791884966195,1713350803.50448
-0.000331831601215526,0.0023333269637078,1713350803.50546
-0.000326927343849093,0.00233604363165796,1713350803.53675
-0.000331879680743441,0.00232760538347065,1713350803.53783
-0.000323393382132053,0.00233320682309568,1713350803.55662
-0.00031971518183127,0.00238059065304697,1713350803.55781
-0.000301732856314629,0.00232493691146374,1713350803.58901
-0.000289568328298628,0.00235378555953503,1713350803.58975
-0.000289952993625775,0.00237349886447191,1713350803.6085
-0.000312695337925106,0.00235876184888184,1713350803.6097
-0.000295121717499569,0.00234907353296876,1713350803.68079
-0.00033065362367779,0.0023280861787498,1713350803.68191
-0.00030084335594438,0.00232885545119643,1713350803.70506
-0.000319138198392466,0.00232616299763322,1713350803.70636
-0.000303968612570316,0.00232426379807293,1713350803.74043
-0.000310291274217889,0.00232849479652941,1713350803.7417
-0.000327167741488665,0.00231957575306296,1713350803.75694
-0.000303776294458657,0.00234380876645446,1713350803.7579
-0.000338298530550674,0.00230118469335139,1713350803.76844
-0.000331134448060766,0.00231806118972599,1713350803.76916
-0.000308536342345178,0.0023335434962064,1713350803.81275
-0.000319402664899826,0.00231919111683965,1713350803.81386
-0.000364670995622873,0.00230919034220278,1713350803.83678
-0.00029290997190401,0.00232734088785946,1713350803.83777
-0.000318945880280808,0.00232924008741975,1713350803.88457
-0.000324547319905832,0.00232498487457633,1713350803.88558
-0.000307526614051312,0.00231861416250467,1713350803.91726
-0.000353996991179883,0.00231207511387765,1713350803.9181
-0.000312959775328636,0.00231748423539102,1713350803.98457
-0.000308440154185519,0.00231707561761141,1713350803.98537
-0.000350799615262076,0.00230738730169833,1713350804.00896
-0.000317815982270986,0.00230438215658069,1713350804.01009
-0.000320220045978203,0.00231231562793255,1713350804.0367
-0.000308728660456836,0.00232561002485454,1713350804.03776
-0.000317407277179882,0.00230820453725755,1713350804.06097
-0.000333682750351727,0.00231842184439301,1713350804.06257
-0.000322335603414103,0.00232517719268799,1713350804.08099
-0.000322624080581591,0.00232561002485454,1713350804.08194
-0.000311589479679242,0.00231558503583074,1713350804.13284
-0.000318801641697064,0.0023079882375896,1713350804.13402
-0.000309041177388281,0.00231108954176307,1713350804.18042
-0.000333322124788538,0.00231596967205405,1713350804.18145
-0.00029238109709695,0.00232467241585255,1713350804.23261
-0.000304401357425377,0.0023011127486825,1713350804.23375
-0.000302934873616323,0.00232075387611985,1713350804.26439
-0.000310699979308993,0.00232065771706402,1713350804.26568
-0.000348010886227712,0.00231101736426353,1713350804.30847
-0.000323874206515029,0.002326475456357,1713350804.3096
-0.00031627737917006,0.00232661981135607,1713350804.33396
-0.000330172828398645,0.00232479255646467,1713350804.33482
-0.000315868703182787,0.00233416841365397,1713350804.36105
-0.000319234357448295,0.0023241916205734,1713350804.39248
-0.000340125610819086,0.00232371082529426,1713350804.40581
-0.000324282882502303,0.00235260743647814,1713350804.40639
-0.00034793876693584,0.00235142954625189,1713350804.45634
-0.000365007552318275,0.00232847081497312,1713350804.45716
-0.000295506353722885,0.00233943341299891,1713350804.50843
-0.000325581058859825,0.00233784667216241,1713350804.50954
-0.000293823512038216,0.00234715035185218,1713350804.5248
