1743758992.6319275,0.004785630677417598
1743758992.6329036,0.004785630677417598
1743758992.6338797,0.004785630677417598
1743758992.6348555,0.004785630677417598
1743758992.6358316,0.004785630677417598
1743758992.6368077,0.004785630677417598
1743758992.6377835,0.004785630677417598
1743758992.6387594,0.004785630677417598
1743758992.6397355,0.004830105681829335
1743758992.6407118,0.004794285272870693
1743758992.6416876,0.00476856189194066
1743758992.6426635,0.004748848646741944
1743758992.6436396,0.004729496009687107
1743758992.6446157,0.00470653729119348
1743758992.6455915,0.004662302692210995
1743758992.6465673,0.004652926880470142
1743758992.6475437,0.004673601747385869
1743758992.6485198,0.0046903099247189274
1743758992.6494956,0.004696921074023375
1743758992.6504714,0.0046905503301481796
1743758992.6514475,0.00468826647857028
1743758992.6524236,0.004696560465879496
1743758992.6533995,0.004714711075788069
1743758992.6543753,0.004724567698387428
1743758992.6553516,0.00472613033367757
1743758992.6563277,0.004737669794281697
1743758992.6573036,0.004746083984305539
1743758992.6582794,0.0047573830394804124
1743758992.6592555,0.004758945674770555
1743758992.6602316,0.004757743647624292
1743758992.6612074,0.004741636483864365
1743758992.6621835,0.0047347849291306645
1743758992.6631596,0.004734424320986786
1743758992.6641357,0.004738391010569454
1743758992.6651115,0.004730217225974865
1743758992.6660874,0.004721923238665648
1743758992.6670635,0.004708099926483622
1743758992.6680398,0.004702690804325438
1743758992.6690156,0.004718677765370738
1743758992.6699915,0.004743800132727638
1743758992.6709676,0.0047469254033079234
1743758992.6719437,0.0047508920928905915
1743758992.6729195,0.004766879053935891
1743758992.6738954,0.004767720472938276
1743758992.6748714,0.004741636483864365
1743758992.6758478,0.004705094858617964
1743758992.6768236,0.0046828573564120955
1743758992.6777995,0.004673120936527364
1743758992.6787755,0.004662422894925622
1743758992.6797516,0.004661461273208611
1743758992.6807275,0.004716393913792838
1743758992.6817033,0.004767359864794397
1743758992.6826797,0.004794285272870693
1743758992.6836557,0.004850660346030436
1743758992.6846316,0.004920978934086832
1743758992.6856074,0.004926508258959642
1743758992.6865835,0.0049088384599095735
1743758992.6875596,0.004878427173109115
1743758992.6885355,0.0048331107496949926
1743758992.6895115,0.004803661084611545
1743758992.6904876,0.00477901952811315
1743758992.6914637,0.0048067863551918295
1743758992.6924396,0.004896096972159184
1743758992.6934154,0.004941533598287932
1743758992.6943915,0.004927830488820531
1743758992.6953676,0.004891168660859505
1743758992.6963437,0.004868089739651252
1743758992.6973195,0.0048482562917379094
1743758992.6982956,0.00484561183201613
1743758992.6992717,0.00483515419584364
1743758992.7002475,0.004842847169579725
1743758992.7012234,0.004873739267238689
1743758992.7021995,0.004877465551392104
1743758992.7031758,0.004885879741415946
1743758992.7041516,0.004880590821972388
1743758992.7051275,0.004868209942365877
1743758992.7061036,0.004874220078097194
1743758992.7070796,0.004865565482644099
1743758992.7080555,0.004825297573244282
1743758992.7090313,0.004802939868323787
1743758992.7100077,0.004831187506260972
1743758992.7109838,0.004904751567612278
1743758992.7119596,0.004983724751121769
1743758992.7129354,0.005052480703888023
1743758992.7139115,0.005059692866765602
1743758992.7148876,0.00501798252479027
1743758992.7158635,0.00496737718193259
1743758992.7168393,0.004910280892485089
1743758992.7178156,0.0048817928491186515
1743758992.7187917,0.00487662413238972
1743758992.7197676,0.00489128886357413
1743758992.7207434,0.0049041505540391465
1743758992.7217195,0.00491352636578
1743758992.7226956,0.004918334474365052
1743758992.7236714,0.0049537942751798165
1743758992.7246475,0.004961607451630527
1743758992.7256236,0.004937206300561384
1743758992.7265997,0.0049085980544803206
1743758992.7275755,0.004924464812810995
1743758992.7285514,0.004960886235342769
1743758992.7295275,0.004993701576435754
1743758992.7305038,0.005021468403514433
1743758992.7314796,0.00503072401254066
1743758992.7324555,0.005053322122890408
1743758992.7334316,0.005073636381662255
1743758992.7344077,0.00506858786764795
1743758992.7353835,0.005061135299341118
1743758992.7363594,0.005044306919293434
1743758992.7373354,0.005012332997202833
1743758992.7383118,0.004978435831678211
1743758992.7392876,0.004964973127640064
1743758992.7402635,0.0049798782642537275
1743758992.7412395,0.004984566170124154
1743758992.7422156,0.004981080291399991
1743758992.7431915,0.00497879643982209
1743758992.7441673,0.004979277250680596
1743758992.7451437,0.00498564799455579
1743758992.7461197,0.004997548063303796
1743758992.7470956,0.004987691440704438
1743758992.7480714,0.004963891303208427
1743758992.7490475,0.004944779071582843
1743758992.7500236,0.004948505355736258
1743758992.7509995,0.004940692179285547
1743758992.7519755,0.004944057855295085
1743758992.7529516,0.004962208465203659
1743758992.7539277,0.005003558199035112
1743758992.7549036,0.005029882593538275
1743758992.7558794,0.005042503878574039
1743758992.7568555,0.0050248340795239705
1743758992.7578316,0.005013535024349096
1743758992.7588077,0.0049910571167139746
1743758992.7597835,0.004969420628081238
1743758992.7607596,0.004959203397338001
1743758992.7617357,0.004940451773856294
1743758992.7627115,0.004954755896896827
1743758992.7636874,0.004981801507687748
1743758992.7646635,0.005027478539245749
1743758992.7656398,0.005065703002496918
1743758992.7666156,0.005098758749019156
1743758992.7675915,0.005118832602361751
1743758992.7685676,0.005086738477556523
1743758992.7695436,0.005048514014305355
1743758992.7705195,0.005028560363677386
1743758992.7714953,0.0050245936740947175
1743758992.7724717,0.005027358336531122
1743758992.7734478,0.005045989757298202
1743758992.7744236,0.005087339491129655
1743758992.7753994,0.005124962940807693
1743758992.7763755,0.0051072931417576245
1743758992.7773516,0.005103206249460329
1743758992.7783275,0.005089503139992929
1743758992.7793033,0.005087820301988161
1743758992.7802796,0.005105850709182108
1743758992.7812557,0.005090825369853819
1743758992.7822316,0.005087820301988161
1743758992.7832074,0.005086498072127271
1743758992.7841835,0.005082891990688482
1743758992.7851596,0.005091065775283072
1743758992.7861354,0.005113543682918193
1743758992.7871115,0.005122318481085914
1743758992.7880876,0.005130251860251251
1743758992.7890637,0.005131694292826766
1743758992.7900395,0.005127607400529472
1743758992.7910154,0.005105850709182108
1743758992.7919915,0.005088301112846666
1743758992.7929678,0.005089623342707556
1743758992.7939436,0.005116548750783851
1743758992.7949195,0.005121236656654277
1743758992.7958956,0.005135660982409435
1743758992.7968717,0.005150806524452351
1743758992.7978475,0.005190954231137542
1743758992.7988234,0.005221485720652626
1743758992.7997994,0.005229298897103337
1743758992.8007758,0.0052463676825802745
1743758992.8017516,0.0052496131558751845
1743758992.8027275,0.005250214169448316
1743758992.8037035,0.005258027345899027
1743758992.8046796,0.005252618223740842
1743758992.8056555,0.005246728290724153
1743758992.8066313,0.005224250383089032
1743758992.8076077,0.005195521934293341
1743758992.8085837,0.005171962202226583
1743758992.8095596,0.005159821728049325
1743758992.8105354,0.005138185239416588
1743758992.8115115,0.005121236656654277
1743758992.8124876,0.005095272870294993
1743758992.8134634,0.005086618274841898
1743758992.8144395,0.005111380034054919
1743758992.8154156,0.0051261649679539565
1743758992.8163917,0.005140589293709114
1743758992.8173676,0.005183261257401457
1743758992.8183434,0.005225332207520669
1743758992.8193195,0.005237953492556432
1743758992.8202956,0.005260190994762301
1743758992.8212717,0.00527653856395148
1743758992.8222475,0.005282188091538916
1743758992.8232236,0.005280625456248775
1743758992.8241997,0.005283750726829059
1743758992.8251755,0.0052873568082678485
1743758992.8261514,0.005267042549496
1743758992.8271275,0.005228337275386327
1743758992.8281038,0.005177010716240889
1743758992.8290796,0.005133497333546161
1743758992.8300555,0.005112461858486556
1743758992.8310316,0.005107172939042998
1743758992.8320076,0.005108014358045382
1743758992.8329835,0.0051492438891622095
1743758992.8339593,0.005221125112508748
1743758992.8349357,0.005273773901515074
1743758992.8359118,0.005266080927778991
1743758992.8368876,0.005254421264460237
1743758992.8378634,0.005271369847222548
1743758992.8388395,0.005296251809150197
1743758992.8398156,0.00530262255302539
1743758992.8407915,0.005274855725946712
1743758992.8417673,0.005248411128728921
1743758992.8427436,0.005240597952278211
1743758992.8437197,0.0052396363305612
1743758992.8446956,0.005232303964968995
1743758992.8456714,0.005217759436499211
1743758992.8466475,0.0051750874728068675
1743758992.8476236,0.005182900649257578
1743758992.8485994,0.005221605923367252
1743758992.8495755,0.0052317029513958635
1743758992.8505516,0.005215956395779816
1743758992.8515277,0.005228577680815579
1743758992.8525035,0.005297694241725712
1743758992.8534794,0.005384841209829793
1743758992.8544555,0.005439172836840888
1743758992.8554318,0.005435326349972846
1743758992.8564076,0.005443379931852809
1743758992.8573835,0.005416093915632635
1743758992.8583596,0.005425109119229609
1743758992.8593357,0.0054229454703663355
1743758992.8603115,0.005388567493983209
1743758992.8612874,0.005354309720314708
1743758992.8622634,0.0053446935031446026
1743758992.8632398,0.005335197488689123
1743758992.8642156,0.0053211337710778435
1743758992.8651915,0.005333634853398981
1743758992.8661675,0.005340606610847308
1743758992.8671436,0.005357675396324244
1743758992.8681195,0.005357795599038872
1743758992.8690953,0.005350463233446665
1743758992.8700716,0.005370296681360008
1743758992.8710477,0.005381114925676376
1743758992.8720236,0.005397823103009435
1743758992.8729994,0.0054033524278822445
1743758992.8739755,0.005390971548275735
1743758992.8749516,0.005364166342914065
1743758992.8759274,0.005339644989130297
1743758992.8769035,0.005327504514953039
1743758992.8778796,0.0053484197872980185
1743758992.8788557,0.00536729161349435
1743758992.8798316,0.005368133032496734
1743758992.8808074,0.005374864384515808
1743758992.8817835,0.005385923034261429
1743758992.8827596,0.0054145312803424925
1743758992.8837357,0.005427993984380641
1743758992.8847115,0.005426791957234378
1743758992.8856876,0.0054040736441700035
1743758992.8866637,0.005395779656860788
1743758992.8876395,0.005414170672198615
1743758992.8886154,0.005423907092083346
1743758992.8895915,0.005417055537349645
1743758992.8905678,0.005404915063172387
1743758992.8915436,0.005396380670433919
1743758992.8925195,0.005409362563613562
1743758992.8934956,0.0054231858757955885
1743758992.8944716,0.005427993984380641
1743758992.8954475,0.005434845539114341
1743758992.8964233,0.005440495066701777
1743758992.8973997,0.005458285068466472
1743758992.8983757,0.005452875946308288
1743758992.8993516,0.005458645676610352
1743758992.9003274,0.005465857839487931
1743758992.9013035,0.005462972974336899
1743758992.9022796,0.005453116351737542
1743758992.9032555,0.0054560012168885725
1743758992.9042313,0.005448428445867115
1743758992.9052076,0.005435927363545977
1743758992.9061837,0.005422825267651709
1743758992.9071596,0.00541236763147922
1743758992.9081354,0.005411526212476835
1743758992.9091115,0.005432201079392562
1743758992.9100876,0.005442778918279678
1743758992.9110637,0.005450351689301136
1743758992.9120395,0.005475474056658036
1743758992.9130156,0.0055004762213003095
1743758992.9139917,0.0055019186538758265
1743758992.9149675,0.005481965003247858
1743758992.9159434,0.005488576152552305
1743758992.9169195,0.005473190205080136
1743758992.9178958,0.005462011352619888
1743758992.9188716,0.005452395135449783
1743758992.9198475,0.00543977385041402
1743758992.9208236,0.005425950538231993
1743758992.9217997,0.005390490737417229
1743758992.9227755,0.005356232963748729
1743758992.9237514,0.005363565329340934
1743758992.9247274,0.005361161275048407
1743758992.9257038,0.0053591178288997605
1743758992.9266796,0.005359238031614387
1743758992.9276555,0.005380393709388619
1743758992.9286315,0.005435446552687472
1743758992.9296076,0.0055009570321588154
1743758992.9305835,0.005542667374134148
1743758992.9315593,0.005571876633788344
1743758992.9325356,0.005594715149567344
1743758992.9335117,0.005602888934161933
1743758992.9344876,0.00559219089256019
1743758992.9354634,0.005578728188522043
1743758992.9364395,0.005574641296224749
1743758992.9374156,0.005571275620215212
1743758992.9383914,0.005530647102671516
1743758992.9393675,0.0055359360221150745
1743758992.9403436,0.005535815819400447
1743758992.9413197,0.0055287238592374955
1743758992.9422956,0.005488335747123052
1743758992.9432714,0.005466098244917183
1743758992.9442475,0.005458886082039604
1743758992.9452236,0.005458405271181099
1743758992.9461997,0.005467300272063446
1743758992.9471755,0.005476075070231168
1743758992.9481516,0.005487013517262163
1743758992.9491277,0.005492903450278853
1743758992.9501035,0.005500115613156432
1743758992.9510794,0.0055086500058948995
1743758992.9520555,0.005534733994968811
1743758992.9530318,0.00556478467362539
1743758992.9540076,0.005565385687198522
1743758992.9549835,0.005567308930632543
1743758992.9559596,0.0055913494735578065
1743758992.9569356,0.005590748459984675
1743758992.9579115,0.005582093864531581
1743758992.9588873,0.0055769251478026485
1743758992.9598637,0.00557295845821998
1743758992.9608397,0.005565385687198522
1743758992.9618156,0.005537979468263721
1743758992.9627914,0.005503361086451342
1743758992.9637675,0.005457083041320209
1743758992.9647436,0.005432321282107188
1743758992.9657195,0.00542835459252452
1743758992.9666953,0.005433523309253451
1743758992.9676716,0.005443620337282062
1743758992.9686477,0.005475954867516542
1743758992.9696236,0.005518747033923511
1743758992.9705994,0.00558077163467069
1743758992.9715755,0.005615870827341576
1743758992.9725516,0.005588705013836028
1743758992.9735277,0.005579569607524427
1743758992.9745035,0.005585219135111865
1743758992.9754796,0.005578006972234285
1743758992.9764557,0.0055808918373853175
1743758992.9774315,0.005583055486248591
1743758992.9784074,0.005566707917059412
1743758992.9793835,0.005557211902603932
1743758992.9803598,0.005543989603995037
1743758992.9813356,0.005548677509865464
1743758992.9823115,0.005544470414853543
1743758992.9832876,0.00551453993891159
1743758992.9842637,0.005483046827679494
1743758992.9852395,0.005459847703756615
1743758992.9862154,0.005475834664801915
1743758992.9871914,0.005485090273828141
1743758992.9881678,0.005485691287401274
1743758992.9891436,0.0054932640584227305
1743758992.9901195,0.005501077234873441
1743758992.9910955,0.0054995145995833
1743758992.9920716,0.0055165833850602366
1743758992.9930475,0.005527041021232726
1743758992.9940233,0.005542306765990269
1743758992.9949996,0.005543749198565785
1743758992.9959757,0.005558053321606317
1743758992.9969516,0.005550841158728738
1743758992.9979274,0.005554447240167528
1743758992.9989035,0.005559135146037953
1743758992.9998796,0.005574881701654002
1743758993.0008554,0.005582454472675459
1743758993.0018315,0.005567909944205675
1743758993.0028076,0.005545672441999806
1743758993.0037837,0.005535575413971195
1743758993.0047596,0.005514900547055469
1743758993.0057354,0.005463573987910031
1743758993.0067115,0.005454919392456937
1743758993.0076876,0.005478118516379815
1743758993.0086637,0.005488455949837678
1743758993.0096395,0.005499875207727178
1743758993.0106156,0.005503000478307463
1743758993.0115917,0.005572838255505354
1743758993.0125675,0.005672005495072067
1743758993.0135434,0.005739920028835936
1743758993.0145195,0.0057269381356562935
1743758993.0154958,0.005674409549364593
1743758993.0164716,0.005612985962190543
1743758993.0174475,0.005571155417500585
1743758993.0184236,0.005561659403045107
1743758993.0193996,0.0055545674428821535
1743758993.0203755,0.005524877372369453
1743758993.0213513,0.005504322708168353
1743758993.0223277,0.005500235815871057
1743758993.0233037,0.005537138049261338
1743758993.0242796,0.005537258251975964
1743758993.0252554,0.005514299533482338
1743758993.0262315,0.005510453046614294
1743758993.0272076,0.005533411765107921
1743758993.0281835,0.005552644199448133
1743758993.0291593,0.005568270552349554
1743758993.0301356,0.005590988865413927
1743758993.0311117,0.00560986069161026
1743758993.0320876,0.0056186354897779815
1743758993.0330634,0.005626809274372571
1743758993.0340395,0.005626568868943318
1743758993.0350156,0.005625006233653176
1743758993.0359917,0.005624285017365418
1743758993.0369675,0.005612264745902786
1743758993.0379436,0.005605533393883712
1743758993.0389197,0.005601085893442538
1743758993.0398955,0.005594354541423464
1743758993.0408714,0.005579208999380548
1743758993.0418475,0.005570193795783575
1743758993.0428238,0.0055734392690784855
1743758993.0437996,0.005570193795783575
1743758993.0447755,0.005566227106200906
1743758993.0457516,0.005564664470910765
1743758993.0467277,0.005570073593068949
1743758993.0477035,0.005562140213903611
1743758993.0486794,0.005555168456455285
1743758993.0496554,0.005545912847429058
1743758993.0506318,0.005541345144273259
1743758993.0516076,0.005536296630258953
1743758993.0525835,0.005528844061952121
1743758993.0535595,0.005518626831208884
1743758993.0545356,0.005513698519909206
1743758993.0555115,0.005503841897309847
1743758993.0564873,0.005502279262019706
1743758993.0574636,0.005499394396868674
1743758993.0584397,0.005465016420485546
1743758993.0594156,0.005431359660390178
1743758993.0603914,0.005422584862222457
1743758993.0613675,0.005419579794356799
1743758993.0623436,0.005400948373589718
1743758993.0633194,0.005398784724726446
1743758993.0642955,0.005416935334635019
1743758993.0652716,0.005458164865751847
1743758993.0662477,0.005517905614921127
1743758993.0672235,0.005541104738844006
1743758993.0681994,0.005581853459102328
1743758993.0691755,0.005592431297989444
1743758993.0701516,0.005540503725270874
1743758993.0711277,0.005470665948072983
1743758993.0721035,0.0054254697273734874
1743758993.0730796,0.005393856413426767
1743758993.0740557,0.005370176478645381
1743758993.0750315,0.005382316952822639
1743758993.0760074,0.005421863645934698
1743758993.0769835,0.005454438581598431
1743758993.0779598,0.005563462443764502
1743758993.0789356,0.00565818218289004
1743758993.0799115,0.005686309618112597
1743758993.0808876,0.005686910631685729
1743758993.0818636,0.005684987388251708
1743758993.0828395,0.0056370265051158075
1743758993.0838153,0.00559026764912617
1743758993.0847917,0.0055545674428821535
1743758993.0857677,0.0055165833850602366
1743758993.0867436,0.0054865327064036575
1743758993.0877194,0.005470545745358358
1743758993.0886955,0.00547535385394341
1743758993.0896716,0.005493023652993478
1743758993.0906475,0.005532209737961658
1743758993.0916233,0.005547956293577706
1743758993.0925996,0.0055406239279855
1743758993.0935757,0.005553726023879769
1743758993.0945516,0.005564063457337633
1743758993.0955274,0.005555769470028417
1743758993.0965035,0.005552403794018879
1743758993.0974796,0.005531368318959274
1743758993.0984557,0.005517424804062621
1743758993.0994315,0.005517424804062621
1743758993.1004076,0.0055163429796309844
1743758993.1013837,0.005530647102671516
1743758993.1023595,0.005520309669213653
1743758993.1033354,0.005497350950720026
1743758993.1043115,0.005500356018585684
1743758993.1052878,0.005512135884619063
1743758993.1062636,0.0055163429796309844
1743758993.1072395,0.005534733994968811
1743758993.1082156,0.005545311833855927
1743758993.1091917,0.005537138049261338
1743758993.1101675,0.005540984536129379
1743758993.1111434,0.0055510815641579905
1743758993.1121194,0.005553846226594396
1743758993.1130958,0.00554843710443621
1743758993.1140716,0.005535815819400447
1743758993.1150475,0.005538820887266105
1743758993.1160235,0.00553413298139568
1743758993.1169996,0.00552824304837899
1743758993.1179755,0.005521271290930664
1743758993.1189513,0.0055019186538758265
1743758993.1199276,0.005495067099142125
1743758993.1209037,0.005486172098259779
1743758993.1218796,0.005470665948072983
1743758993.1228554,0.00546489621777092
1743758993.1238315,0.0054561214196032
1743758993.1248076,0.005452635540879036
1743758993.1257834,0.005458645676610352
1743758993.1267595,0.005468261893780457
1743758993.1277356,0.0054837680439672526
1743758993.1287117,0.005487133719976789
1743758993.1296875,0.005479801354384584
1743758993.1306634,0.005462492163478393
1743758993.1316395,0.005438932431411636
1743758993.1326156,0.00541561310477413
1743758993.1335917,0.00539830391386794
1743758993.1345675,0.00536368553205556
1743758993.1355436,0.0053474581655810075
1743758993.1365197,0.005332553028967344
1743758993.1374955,0.005323177217226491
1743758993.1384714,0.005314282216344144
1743758993.1394475,0.005327023704094534
1743758993.1404238,0.005337721745696276
1743758993.1413996,0.005370296681360008
1743758993.1423755,0.005412487834193846
1743758993.1433516,0.005434965741828967
1743758993.1443276,0.005461410339046757
1743758993.1453035,0.005454919392456937
1743758993.1462793,0.005419098983498293
1743758993.1472557,0.0054112858070475825
1743758993.1482317,0.005412848442337724
1743758993.1492076,0.005390610940131856
1743758993.1501834,0.005369695667786876
1743758993.1511595,0.005380393709388619
1743758993.1521356,0.005405035265887014
1743758993.1531115,0.0054529961490229146
1743758993.1540873,0.005531127913530022
1743758993.1550636,0.005559014943323327
1743758993.1560397,0.005570434201212828
1743758993.1570156,0.00557752616137578
1743758993.1579914,0.005562500822047491
1743758993.1589675,0.005537979468263721
1743758993.1599436,0.005529204670096
1743758993.1609197,0.00549134081498871
1743758993.1618955,0.005457804257607967
1743758993.1628716,0.005439172836840888
1743758993.1638477,0.00543027783595854
1743758993.1648235,0.005423065673080961
1743758993.1657994,0.005419459591642172
1743758993.1667755,0.00542703236266363
1743758993.1677518,0.005444221350855194
1743758993.1687276,0.00545804466303722
1743758993.1697035,0.005466579055775689
1743758993.1706796,0.00547992155709921
1743758993.1716557,0.005488936760696184
1743758993.1726315,0.005474512434941026
1743758993.1736073,0.005455881014173946
1743758993.1745834,0.005450832500159641
1743758993.1755598,0.005443379931852809
1743758993.1765356,0.005439653647699393
1743758993.1775115,0.005437009187977615
1743758993.1784875,0.005427873781666014
1743758993.1794636,0.005416334321061887
1743758993.1804395,0.005405756482174773
1743758993.1814153,0.005397582697580183
1743758993.1823916,0.005390370534702604
1743758993.1833677,0.005381114925676376
1743758993.1843436,0.005372941141081787
1743758993.1853194,0.005368253235211361
1743758993.1862955,0.005366690599921218
1743758993.1872716,0.005364767356487197
1743758993.1882474,0.005363324923911682
1743758993.1892235,0.005363324923911682
1743758993.1901996,0.005362483504909297
1743758993.1911757,0.005376907830664455
1743758993.1921515,0.005378470465954598
1743758993.1931274,0.005374022965513424
1743758993.1941035,0.005367171410779723
1743758993.1950796,0.005365849180918834
1743758993.1960557,0.005352146071451434
1743758993.1970315,0.005339284380986418
1743758993.1980076,0.005324259041658129
1743758993.1989837,0.00529973768787436
1743758993.1999595,0.005271249644507921
1743758993.2009354,0.005247569709726538
1743758993.2019114,0.005220403896220989
1743758993.2028878,0.005168235918073167
1743758993.2038636,0.005132295306399898
1743758993.2048395,0.005112461858486556
1743758993.2058156,0.005113904291062072
1743758993.2067916,0.0051294104412488665
1743758993.2077675,0.005181097608538183
1743758993.2087433,0.005222206936940384
1743758993.2097197,0.00528795782184098
1743758993.2106957,0.005366570397206592
1743758993.2116716,0.005409843374472066
1743758993.2126474,0.0053966210758631715
1743758993.2136235,0.005378831074098477
1743758993.2145996,0.00534902080087115
1743758993.2155755,0.0053474581655810075
1743758993.2165515,0.005360319856046024
1743758993.2175276,0.005380634114817872
1743758993.2185037,0.005389889723844098
1743758993.2194796,0.0054450627698575775
1743758993.2204554,0.0054641750014831625
1743758993.2214315,0.005444702161713698
1743758993.2224076,0.005410564590759825
1743758993.2233837,0.005373421951940293
1743758993.2243595,0.00535455012574396
1743758993.2253356,0.005335317691403749
1743758993.2263117,0.005311036743049234
1743758993.2272875,0.005312959986483254
1743758993.2282634,0.00529709322815258
1743758993.2292395,0.005275456739519843
1743758993.2302158,0.005251776804738459
1743758993.2311916,0.005258988967616038
1743758993.2321675,0.005261272819193938
1743758993.2331436,0.00525598389975038
1743758993.2341197,0.005234347411117643
1743758993.2350955,0.005230621126964226
1743758993.2360713,0.005226534234666932
1743758993.2370474,0.005229178694388711
1743758993.2380238,0.005227135248240064
1743758993.2389996,0.005226053423808426
1743758993.2399755,0.005249973764019064
1743758993.2409515,0.005273653698800449
1743758993.2419276,0.005288198227270232
1743758993.2429035,0.005293487146713791
1743758993.2438793,0.005287717416411728
1743758993.2448556,0.005280505253534149
1743758993.2458317,0.005272812279798064
1743758993.2468076,0.005266201130493617
1743758993.2477834,0.005260792008335432
1743758993.2487595,0.005260912211050059
1743758993.2497356,0.005256224305179632
1743758993.2507114,0.005256104102465006
1743758993.2516875,0.005251776804738459
1743758993.2526636,0.005248891939587427
1743758993.2536397,0.005249012142302053
1743758993.2546155,0.005237352478983301
1743758993.2555914,0.005219322071789353
1743758993.2565675,0.0052008108537369
1743758993.2575436,0.005184823892691599
1743758993.2585196,0.0051557348357520304
1743758993.2594955,0.005139868077421356
1743758993.2604716,0.005133737738975414
1743758993.2614477,0.0051373438204142035
1743758993.2624235,0.005139026658418973
1743758993.2633994,0.005152849970600999
1743758993.2643754,0.0051673944990707835
1743758993.2653518,0.00517208240494121
1743758993.2663276,0.005175808689094626
1743758993.2673035,0.005176289499953131
1743758993.2682796,0.005169197539790178
1743758993.2692556,0.005155494430322778
1743758993.2702315,0.005124001319090682
1743758993.2712073,0.005095152667580366
1743758993.2721837,0.005078444490247308
1743758993.2731597,0.005071112124655102
1743758993.2741356,0.005058010028760834
1743758993.2751114,0.00504899482516386
1743758993.2760875,0.0050541635418927915
1743758993.2770636,0.005075920233240155
1743758993.2780395,0.00513518017155093
1743758993.2790155,0.005183141054686831
1743758993.2799916,0.00517989558139192
1743758993.2809677,0.0051524893624571196
1743758993.2819436,0.005127968008673351
1743758993.2829194,0.005108254763474635
1743758993.2838955,0.005084815234122503
1743758993.2848716,0.005057168609758449
1743758993.2858477,0.005046109960012829
1743758993.2868235,0.005044907932866566
1743758993.2877996,0.005037455364559734
1743758993.2887757,0.0050218290116583126
1743758993.2897515,0.005059452461336349
1743758993.2907274,0.005137944833987335
1743758993.2917035,0.005217639233784584
1743758993.2926798,0.0052342272084030155
1743758993.2936556,0.005218841260930847
1743758993.2946315,0.0052099462600485
1743758993.2956076,0.005203815921602558
1743758993.2965837,0.005201051259166152
1743758993.2975595,0.005194079501717826
1743758993.2985353,0.005171962202226583
1743758993.2995117,0.005163548012202741
1743758993.3004878,0.0051527297678863725
1743758993.3014636,0.005146719632155057
1743758993.3024395,0.00513518017155093
1743758993.3034155,0.005134458955263172
1743758993.3043916,0.0051256841570954505
1743758993.3053675,0.005119313413220256
1743758993.3063433,0.005111860844913424
1743758993.3073196,0.005109096182477019
1743758993.3082957,0.005107653749901503
1743758993.3092716,0.005103206249460329
1743758993.3102474,0.005095152667580366
1743758993.3112235,0.005101523411455561
1743758993.3121996,0.005099960776165419
1743758993.3131754,0.005099720370736166
1743758993.3141515,0.005086858680271151
1743758993.3151276,0.0050735161789476286
1743758993.3161037,0.00506402016449215
1743758993.3170795,0.005069669692079587
1743758993.3180554,0.005069429286650334
1743758993.3190315,0.0050625777319166345
1743758993.3200076,0.005059212055907097
1743758993.3209836,0.005055726177182934
1743758993.3219595,0.005054524150036671
1743758993.3229356,0.005060293880338734
1743758993.3239117,0.005053081717461155
1743758993.3248875,0.005045028135581191
1743758993.3258634,0.005041061445998523
1743758993.3268394,0.00503168563425767
1743758993.3278158,0.005026516917528739
1743758993.3287916,0.005023271444233828
1743758993.3297675,0.005020025970938918
1743758993.3307436,0.005015698673212369
1743758993.3317196,0.005009087523907922
1743758993.3326955,0.004987931846133691
1743758993.3336713,0.004979517656109848
1743758993.3346477,0.004973988331237037
1743758993.3356237,0.004969060019937359
1743758993.3365996,0.0049607660326281425
1743758993.3375754,0.0049546356941822
1743758993.3385515,0.004950428599170279
1743758993.3395276,0.004939129543995406
1743758993.3405035,0.004924705218240248
1743758993.3414795,0.004906674811046299
1743758993.3424556,0.004899342445454094
1743758993.3434317,0.004892250485291141
1743758993.3444076,0.004895135350442173
1743758993.3453834,0.004892250485291141
1743758993.3463595,0.004874700888955699
1743758993.3473356,0.004870493793943778
1743758993.3483117,0.0049006646753149835
1743758993.3492875,0.0049465821123022375
1743758993.3502636,0.005017862322075644
1743758993.3512397,0.005043585703005676
1743758993.3522155,0.005042023067715533
1743758993.3531914,0.005029882593538275
1743758993.3541675,0.0050054814424691325
1743758993.3551438,0.005007885496761659
1743758993.3561196,0.005034570499408701
1743758993.3570955,0.005062217123772755
1743758993.3580716,0.0050546443527512966
1743758993.3590477,0.005016780497644007
1743758993.3600235,0.004991658130287106
1743758993.3609993,0.00496280947877679
1743758993.3619757,0.004962208465203659
1743758993.3629518,0.004965934749357074
1743758993.3639276,0.004946101301443732
1743758993.3649035,0.004942735625434195
1743758993.3658795,0.004949466977453269
1743758993.3668556,0.004955717518613837
1743758993.3678315,0.004951149815458037
1743758993.3688073,0.004942495220004942
1743758993.3697836,0.004926388056245016
1743758993.3707597,0.004916531433645658
1743758993.3717356,0.0049085980544803206
1743758993.3727114,0.004912805149492242
1743758993.3736875,0.004917853663506547
1743758993.3746636,0.0049204981232283266
1743758993.3756394,0.004919656704225942
1743758993.3766155,0.004922180961233095
1743758993.3775916,0.004917493055362669
1743758993.3785677,0.004914728392926263
1743758993.3795435,0.004914487987497011
1743758993.3805194,0.004906314202902421
1743758993.3814955,0.004893091904293525
1743758993.3824716,0.004887802984849968
1743758993.3834476,0.004880470619257762
1743758993.3844235,0.004868570550509757
1743758993.3853996,0.004854867441042357
1743758993.3863757,0.004847294670020898
1743758993.3873515,0.00484693406187702
1743758993.3883274,0.004852102778605951
1743758993.3893034,0.004851261359603567
1743758993.3902798,0.0048557088600447405
1743758993.3912556,0.004862800820207693
1743758993.3922315,0.004855468454615488
1743758993.3932076,0.004856430076332499
1743758993.3941836,0.004852823994893709
1743758993.3951595,0.00484657345373314
1743758993.3961353,0.004832750141551114
1743758993.3971117,0.00482734101939293
1743758993.3980877,0.004818446018510582
1743758993.3990636,0.004813637909925529
1743758993.4000394,0.004800656016745887
1743758993.4010155,0.0047914004077196605
1743758993.4019916,0.004783346825839697
1743758993.4029675,0.00477216797337945
1743758993.4039435,0.004751372903749097
1743758993.4049196,0.00473887182142796
1743758993.4058957,0.004727692968967712
1743758993.4068716,0.004721803035951023
1743758993.4078474,0.004696440263164869
1743758993.4088235,0.004684540194416864
1743758993.4097996,0.0046828573564120955
1743758993.4107757,0.004687545262282522
1743758993.4117515,0.00471014337263227
1743758993.4127276,0.004746083984305539
1743758993.4137037,0.004778298311825392
1743758993.4146795,0.004809190409484356
1743758993.4156554,0.00482601878953204
1743758993.4166315,0.004827701627536808
1743758993.4176078,0.004816402572361935
1743758993.4185836,0.004783346825839697
1743758993.4195595,0.0047538971607562494
1743758993.4205356,0.004735385942703796
1743758993.4215117,0.00471891817079999
1743758993.4224875,0.004699325128315901
1743758993.4234633,0.0046898291138604215
1743758993.4244397,0.004688987694858038
1743758993.4254158,0.004699565533745154
1743758993.4263916,0.004716393913792838
1743758993.4273674,0.004741035470291233
1743758993.4283435,0.004760628512775323
1743758993.4293196,0.0047608689182045754
1743758993.4302955,0.0047543779716147545
1743758993.4312713,0.0047439203354422655
1743758993.4322476,0.0047462041870201645
1743758993.4332237,0.004744761754444649
1743758993.4341996,0.004719158576229243
1743758993.4351754,0.0047203606033755065
1743758993.4361515,0.00475029107931746
1743758993.4371276,0.004776375068391371
1743758993.4381034,0.00477216797337945
1743758993.4390795,0.004745963781590912
1743758993.4400556,0.004726611144536075
1743758993.4410317,0.00472252425223878
1743758993.4420075,0.00472613033367757
1743758993.4429834,0.004730818239547996
1743758993.4439595,0.004727212158109207
1743758993.4449358,0.004722404049524154
1743758993.4459116,0.00471567269750508
1743758993.4468875,0.004700647358176791
1743758993.4478636,0.004689107897572664
1743758993.4488397,0.004686463437850885
1743758993.4498155,0.004684900802560743
1743758993.4507914,0.004695959452306365
1743758993.4517674,0.004692473573582201
1743758993.4527438,0.00467780884239779
1743758993.4537196,0.004663624922071885
1743758993.4546955,0.004659177421630711
1743758993.4556715,0.004659658232489216
1743758993.4566476,0.004660379448776974
1743758993.4576235,0.004657494583625943
1743758993.4585993,0.004644152082302421
1743758993.4595757,0.0046334540407006785
1743758993.4605517,0.004627684310398616
1743758993.4615276,0.004615063025362852
1743758993.4625034,0.004612899376499578
1743758993.4634795,0.004614942822648226
1743758993.4644556,0.004611697349353315
1743758993.4654315,0.004607490254341394
1743758993.4664075,0.004606047821765879
1743758993.4673836,0.004599436672461431
1743758993.4683597,0.004597994239885915
1743758993.4693356,0.004593546739444741
1743758993.4703114,0.004580084035406593
1743758993.4712875,0.004566741534083072
1743758993.4722636,0.004553038424615672
1743758993.4732397,0.004541138355867666
1743758993.4742155,0.004530560516980551
1743758993.4751916,0.0045246705839638605
1743758993.4761677,0.004515414974937635
1743758993.4771435,0.004504957338765145
1743758993.4781194,0.004495581527024292
1743758993.4790955,0.004498105784031445
1743758993.4800718,0.004507722001201551
1743758993.4810476,0.0045246705839638605
1743758993.4820235,0.0045286372735465295
1743758993.4829996,0.00452178571881283
1743758993.4839756,0.0045134917315036134
1743758993.4849515,0.0044990674057484555
1743758993.4859273,0.004484042066420166
1743758993.4869037,0.004471901592242907
1743758993.4878798,0.004469737943379634
1743758993.4888556,0.00445615503662686
1743758993.4898314,0.004445096386881239
1743758993.4908075,0.004448942873749281
1743758993.4917836,0.0044568762529146174
1743758993.4927595,0.004467093483657854
1743758993.4937353,0.004500269432894719
1743758993.4947116,0.0045442636264479514
1743758993.4956877,0.004561813222783393
1743758993.4966636,0.004561212209210261
1743758993.4976394,0.004539215112433646
1743758993.4986155,0.004514813961364503
1743758993.4995916,0.004504236122477387
1743758993.5005674,0.004526593827397883
1743758993.5015435,0.00455147578932553
1743758993.5025196,0.004544143423733324
1743758993.5034957,0.004534286801133967
1743758993.5044715,0.004537652477143503
1743758993.5054474,0.004521665516098203
1743758993.5064235,0.0045062795686260345
1743758993.5073998,0.004501471460040982
1743758993.5083756,0.004505077541479771
1743758993.5093515,0.0045253918002516194
1743758993.5103276,0.004516617002083898
1743758993.5113037,0.004500990649182476
1743758993.5122795,0.00449401889173415
1743758993.5132554,0.004501952270899487
1743758993.5142314,0.004502433081757992
1743758993.5152078,0.004493417878161018
1743758993.5161836,0.004492816864587887
1743758993.5171595,0.00449305727001714
1743758993.5181355,0.004492095648300129
1743758993.5191116,0.004487287539715076
1743758993.5200875,0.0044844026745640446
1743758993.5210633,0.004485965309854186
1743758993.5220397,0.004468175308089492
1743758993.5230157,0.0044536307796197066
1743758993.5239916,0.004444254967878854
1743758993.5249674,0.004445336792310491
1743758993.5259435,0.004447620643888391
1743758993.5269196,0.0044468994276006335
1743758993.5278955,0.00443199429098697
1743758993.5288715,0.004424661925394765
1743758993.5298476,0.004401583004186512
1743758993.5308237,0.0043979769227477225
1743758993.5317996,0.004392447597874911
1743758993.5327754,0.004386918273002101
1743758993.5337515,0.0043830717861340586
1743758993.5347276,0.004383552596992564
1743758993.5357037,0.004383913205136443
1743758993.5366795,0.004378744488407511
1743758993.5376556,0.004375619217827227
1743758993.5386317,0.004370210095669042
1743758993.5396075,0.004369008068522779
1743758993.5405834,0.004363839351793848
1743758993.5415595,0.004358189824206411
1743758993.5425358,0.004349775634182569
1743758993.5435116,0.004341601849587979
1743758993.5444875,0.004329100767266842
1743758993.5454636,0.004314916846940936
1743758993.5464396,0.004312031981789905
1743758993.5474155,0.004303497589051436
1743758993.5483913,0.004290756101301046
1743758993.5493677,0.004271283261531583
1743758993.5503438,0.004252171029905998
1743758993.5513196,0.004238347717723971
1743758993.5522954,0.004229332514126998
1743758993.5532715,0.004226567851690593
1743758993.5542476,0.0042472427186063194
1743758993.5552235,0.004246641705033188
1743758993.5561993,0.004237265893292335
1743758993.5571756,0.0042353426498583134
1743758993.5581517,0.004242194204592014
1743758993.5591276,0.004259743800927456
1743758993.5601034,0.004269961031670693
1743758993.5610795,0.004260585219929841
1743758993.5620556,0.004238948731297103
1743758993.5630314,0.004220317310530024
1743758993.5640075,0.004223322378395682
1743758993.5649836,0.004237506298721588
1743758993.5659597,0.004246401299603935
1743758993.5669355,0.004267076166519662
1743758993.5679114,0.004270682247958451
1743758993.5688875,0.004248685151181835
1743758993.5698638,0.004241472988304256
1743758993.5708396,0.004277413599977525
1743758993.5718155,0.004321768401674636
1743758993.5727916,0.0043341492812811475
1743758993.5737677,0.004309387522068125
1743758993.5747435,0.00431119056278752
1743758993.5757194,0.004321768401674636
1743758993.5766954,0.004312993603506915
1743758993.5776718,0.004294722790883714
1743758993.5786476,0.004262748868793114
1743758993.5796235,0.004241953799162761
1743758993.5805995,0.004233900217282797
1743758993.5815756,0.004242194204592014
1743758993.5825515,0.004257700354778809
1743758993.5835273,0.004257459949349556
1743758993.5845037,0.004246401299603935
1743758993.5854797,0.004227409270692977
1743758993.5864556,0.004197118186607144
1743758993.5874314,0.004189545415585687
1743758993.5884075,0.004190026226444192
1743758993.5893836,0.004187982780295544
1743758993.5903594,0.004190867645446576
1743758993.5913355,0.004197839402894902
1743758993.5923116,0.004196877781177892
1743758993.5932877,0.004203849538626218
1743758993.5942636,0.0042067344037772505
1743758993.5952394,0.004205291971201734
1743758993.5962155,0.004201205078904439
1743758993.5971916,0.004199041430041166
1743758993.5981677,0.004194714132314618
1743758993.5991435,0.004190987848161202
1743758993.6001196,0.004189305010156434
1743758993.6010957,0.0041796887929863285
1743758993.6020715,0.004173558454540386
1743758993.6030474,0.004167668521523697
1743758993.6040235,0.004162980615653271
1743758993.6049998,0.004158893723355975
1743758993.6059756,0.00415156135776377
1743758993.6069515,0.004147234060037222
1743758993.6079276,0.004141704735164412
1743758993.6089036,0.004141103721591281
1743758993.6098795,0.004136656221150107
1743758993.6108553,0.004138579464584128
1743758993.6118317,0.004136776423864733
1743758993.6128078,0.004139060275442633
1743758993.6137836,0.004135213788574591
1743758993.6147594,0.004129684463701781
1743758993.6157355,0.004120789462819433
1743758993.6167116,0.004113216691797975
1743758993.6176875,0.00411501973251737
1743758993.6186633,0.004107446961495911
1743758993.6196396,0.004092421622167622
1743758993.6206157,0.004089176148872711
1743758993.6215916,0.00407318918782741
1743758993.6225674,0.004050470874763037
1743758993.6235435,0.0040324404675690885
1743758993.6245196,0.00402162222325272
1743758993.6254954,0.004001428167195499
1743758993.6264715,0.003989528098447493
1743758993.6274476,0.003975103772692335
1743758993.6284237,0.003975344178121588
1743758993.6293995,0.0039777482324141146
1743758993.6303754,0.003989768503876746
1743758993.6313515,0.004009722154504715
1743758993.6323278,0.004039532427732042
1743758993.6333036,0.004062491146225668
1743758993.6342795,0.0040767952692662
1743758993.6352556,0.004083526621285275
1743758993.6362317,0.004086411486436305
1743758993.6372075,0.004070664930820258
1743758993.6381834,0.004049869861189905
1743758993.6391594,0.0040261899264085205
1743758993.6401358,0.003994817017891052
1743758993.6411116,0.003962963298515077
1743758993.6420875,0.003954549108491235
1743758993.6430635,0.003948659175474546
1743758993.6440396,0.003953347081344972
1743758993.6450155,0.003952385459627961
1743758993.6459913,0.003972819921114435
1743758993.6469676,0.004021862628681973
1743758993.6479437,0.004057202226782111
1743758993.6489196,0.004095667095462532
1743758993.6498954,0.00412054905739018
1743758993.6508715,0.004141103721591281
1743758993.6518476,0.004134131964142954
1743758993.6528234,0.004140382505303523
1743758993.6537995,0.004133651153284449
1743758993.6547756,0.004118024800383028
1743758993.6557517,0.004097470136181927
1743758993.6567276,0.004087613513582569
1743758993.6577034,0.0040783579045563425
1743758993.6586795,0.004063332565228053
1743758993.6596556,0.004049869861189905
1743758993.6606317,0.004043378914600084
1743758993.6616075,0.004030877832278947
1743758993.6625836,0.004010683776221726
1743758993.6635597,0.004007558505641441
1743758993.6645355,0.00399746147761283
1743758993.6655114,0.00398279674642842
1743758993.6664875,0.00397690681341173
1743758993.6674638,0.003971738096682799
1743758993.6684396,0.003968011812529383
1743758993.6694155,0.003972459312970556
1743758993.6703916,0.003982195732855289
1743758993.6713676,0.003983878570860056
1743758993.6723435,0.003979551273133509
1743758993.6733193,0.003975464380836214
1743758993.6742957,0.003966208771809988
1743758993.6752717,0.003963323906658957
1743758993.6762476,0.00396452593380522
1743758993.6772234,0.003961160257795682
1743758993.6781995,0.00395635214921063
1743758993.6791756,0.003945413702179635
1743758993.6801515,0.003940605593594582
1743758993.6811273,0.003947937959186788
1743758993.6821036,0.003949620797191556
1743758993.6830797,0.003956472351925256
1743758993.6840556,0.003956472351925256
1743758993.6850314,0.003942528837028603
1743758993.6860075,0.0039283449167026975
1743758993.6869836,0.003935076268721771
1743758993.6879597,0.003946134918467393
1743758993.6889355,0.003936879309441166
1743758993.6899116,0.00391392059094754
1743758993.6908877,0.0038954093728950866
1743758993.6918635,0.0038862739665834864
1743758993.6928394,0.003883509304147081
1743758993.6938155,0.003871008221825944
1743758993.6947918,0.0038606707883680805
1743758993.6957676,0.0038425201784595066
1743758993.6967435,0.0038378322725890804
1743758993.6977196,0.0038408373404547383
1743758993.6986957,0.0038430009893180117
1743758993.6996715,0.0038291776771359853
1743758993.7006474,0.003814272540522322
1743758993.7016234,0.003835909029155059
1743758993.7025998,0.0038482899087615694
1743758993.7035756,0.003847208084329933
1743758993.7045515,0.0038463666653275486
1743758993.7055275,0.003851294976627228
1743758993.7065036,0.003859588963936444
1743758993.7074795,0.003868003153960286
1743758993.7084553,0.0038772587629865123
1743758993.7094316,0.0038925245077440548
1743758993.7104077,0.0038954093728950866
1743758993.7113836,0.0038964911973267233
1743758993.7123594,0.003893966940319571
1743758993.7133355,0.0038985346434753706
1743758993.7143116,0.0039019003194849075
1743758993.7152874,0.003892885115887934
1743758993.7162635,0.0038844709258640917
1743758993.7172396,0.0038535788282051276
1743758993.7182157,0.0038440828137496484
1743758993.7191916,0.0038662001132408912
1743758993.7201674,0.0038724506544014596
1743758993.7211435,0.0038568243015000385
1743758993.7221196,0.003844924232752033
1743758993.7230957,0.0038437222056057698
1743758993.7240715,0.0038594687612218174
1743758993.7250476,0.0038515353820564803
1743758993.7260237,0.003847688895188438
1743758993.7269995,0.0038480495033323173
1743758993.7279754,0.0038417989621717485
1743758993.7289515,0.003826893825558085
1743758993.7299278,0.0038042957152083375
1743758993.7309036,0.0038106664590835324
1743758993.7318795,0.0038432413947472647
1743758993.7328556,0.0038827880878593234
1743758993.7338316,0.003910554914938003
1743758993.7348075,0.003921974172827503
1743758993.7357833,0.003932792417143872
1743758993.7367597,0.0039313499845683554
1743758993.7377357,0.003917406469671703
1743758993.7387116,0.003887716399159002
1743758993.7396874,0.0038756961276963705
1743758993.7406635,0.003864757680665375
1743758993.7416396,0.0038784607901327754
1743758993.7426155,0.003877859776559644
1743758993.7435913,0.0038655990996677597
1743758993.7445676,0.003871849640828328
1743758993.7455437,0.003868003153960286
1743758993.7465196,0.0038636758562337384
1743758993.7474954,0.0038568243015000385
1743758993.7484715,0.0038557424770684014
1743758993.7494476,0.00383554842101118
1743758993.7504237,0.0038348272047234225
1743758993.7513995,0.003841919164886375
1743758993.7523756,0.0038442030164642753
1743758993.7533517,0.0038410777458839905
1743758993.7543275,0.003836510042728191
1743758993.7553034,0.0038261726092703274
1743758993.7562795,0.003812589702517553
1743758993.7572558,0.0038145129459515744
1743758993.7582316,0.003811628080800543
1743758993.7592075,0.0038059785532131058
1743758993.7601836,0.003789029970450795
1743758993.7611597,0.0037794137532806897
1743758993.7621355,0.0037803753749977003
1743758993.7631114,0.003759940913511226
1743758993.7640874,0.0037491226691948576
1743758993.7650638,0.0037497236827679892
1743758993.7660396,0.0037639076030938946
1743758993.7670155,0.003788068348733785
1743758993.7679915,0.0037990067957647793
1743758993.7689676,0.003803694701635206
1743758993.7699435,0.0038306201097115015
1743758993.7709193,0.0038511747739126013
1743758993.7718956,0.0038552616662098963
1743758993.7728717,0.003873772884262349
1743758993.7738476,0.0038526172064881174
1743758993.7748234,0.003803694701635206
1743758993.7757995,0.0037826592265756006
1743758993.7767756,0.003769677333395958
1743758993.7777514,0.0038103058509396533
1743758993.7787275,0.003825571595697196
1743758993.7797036,0.003825932203841075
1743758993.7806797,0.003836510042728191
1743758993.7816556,0.0038422797730302536
1743758993.7826314,0.0038568243015000385
1743758993.7836075,0.0038325433531455223
1743758993.7845836,0.0037722015904031107
1743758993.7855597,0.0037409488846002676
1743758993.7865355,0.0037605419270843577
1743758993.7875116,0.0037730430094054944
1743758993.7884877,0.0037785723342783056
1743758993.7894635,0.003791313822028695
1743758993.7904394,0.003798165376762395
1743758993.7914155,0.003780976388570832
1743758993.7923918,0.003762945981376884
1743758993.7933676,0.003748762061050978
1743758993.7943435,0.0037325346945764255
1743758993.7953196,0.0037309720592862833
1743758993.7962956,0.0037087345570804148
1743758993.7972715,0.003697195096476288
1743758993.7982473,0.0037118598276606987
1743758993.7992237,0.0037232790855501988
1743758993.8001997,0.0037322942891471734
1743758993.8011756,0.003725683139842725
1743758993.8021514,0.0037377034113053576
1743758993.8031275,0.0037482812501924735
1743758993.8041036,0.003719432598682157
1743758993.8050795,0.0037045274620684937
1743758993.8060553,0.003733856924437315
1743758993.8070316,0.0037563348320724366
1743758993.8080077,0.0037647490220962788
1743758993.8089836,0.0037542913859237893
1743758993.8099594,0.0037282073968498784
1743758993.8109355,0.0037272457751328677
1743758993.8119116,0.003739386249310126
1743758993.8128877,0.003743112533463542
1743758993.8138635,0.0037423913171757838
1743758993.8148396,0.0037135426656654674
1743758993.8158157,0.003693949623181378
1743758993.8167915,0.003722798274691694
1743758993.8177674,0.0037914340247433213
1743758993.8187435,0.0038398757187377273
1743758993.8197198,0.0038119886889444216
1743758993.8206956,0.003802612877203569
1743758993.8216715,0.0037958815251844954
1743758993.8226476,0.0037950401061821112
1743758993.8236237,0.003790472403026311
1743758993.8245995,0.0037731632121201213
1743758993.8255754,0.0037677540899619367
1743758993.8265514,0.003762945981376884
1743758993.8275278,0.0037649894275255317
1743758993.8285036,0.0037468388176169574
1743758993.8294795,0.003733977127151941
1743758993.8304555,0.0037524883452043946
1743758993.8314316,0.003751887331631263
1743758993.8324075,0.003741790303602652
1743758993.8333833,0.003760301521655105
1743758993.8343596,0.0037753268609833947
1743758993.8353357,0.003774966252839516
1743758993.8363116,0.003763186386806137
1743758993.8372874,0.0037423913171757838
1743758993.8382635,0.0037459973986145732
1743758993.8392396,0.0037464782094730788
1743758993.8402154,0.0037499640881972413
1743758993.8411915,0.003756935845645568
1743758993.8421676,0.003745516587756068
1743758993.8431437,0.003718230571535894
1743758993.8441195,0.0037029648267783515
1743758993.8450954,0.003717268949818883
1743758993.8460715,0.003732654897291052
1743758993.8470476,0.0037118598276606987
1743758993.8480237,0.0037086143543657887
1743758993.8489995,0.0037177497606773885
1743758993.8499756,0.003709936584226678
1743758993.8509517,0.003685174825013656
1743758993.8519275,0.0036714717155462563
1743758993.8529034,0.0036976759073347933
1743758993.8538795,0.003728447802279131
1743758993.8548558,0.003713302260236215
1743758993.8558316,0.003703686043066109
1743758993.8568075,0.003714143679238599
1743758993.8577836,0.003712220435804578
1743758993.8587596,0.003729890234854647
1743758993.8597355,0.0037397468574540045
1743758993.8607113,0.003746237804043826
1743758993.8616877,0.0037389054384516208
1743758993.8626637,0.0037236396936940783
1743758993.8636396,0.0037119800303753252
1743758993.8646154,0.003720514423113794
1743758993.8655915,0.003711258814087567
1743758993.8665676,0.003732895302720305
1743758993.8675435,0.0037377034113053576
1743758993.8685193,0.0037113790168021936
1743758993.8694956,0.0036958728666153986
1743758993.8704717,0.003721355842116178
1743758993.8714476,0.0037235194909794518
1743758993.8724234,0.003689141514596325
1743758993.8733995,0.003669187863968356
1743758993.8743756,0.0036625767146639086
1743758993.8753517,0.003645748334616224
1743758993.8763275,0.0036435846857529506
1743758993.8773036,0.003651518064918287
1743758993.8782797,0.0036594514440836247
1743758993.8792555,0.003655845362644835
1743758993.8802314,0.0036444261047553343
1743758993.8812075,0.0036456281319015974
1743758993.8821838,0.003666062593388072
1743758993.8831596,0.0037101769896559305
1743758993.8841355,0.0037169083416750044
1743758993.8851116,0.0037113790168021936
1743758993.8860877,0.003758738886364963
1743758993.8870635,0.003759219697223468
1743758993.8880394,0.003721355842116178
1743758993.8890154,0.0037302508429985256
1743758993.8899918,0.0037411892900295206
1743758993.8909676,0.003746358006758452
1743758993.8919435,0.0037502044936264943
1743758993.8929195,0.0037594601026527206
1743758993.8938956,0.003728568004993757
1743758993.8948715,0.0036559655653594612
1743758993.8958473,0.003599229884055839
1743758993.8968236,0.0035975470460510705
1743758993.8977997,0.0036444261047553343
1743758993.8987756,0.0036664232015319507
1743758993.8997514,0.003710778003229062
1743758993.9007275,0.0037134224629508414
1743758993.9017036,0.003721716450260057
1743758993.9026794,0.0037450357768975626
1743758993.9036555,0.0037607823325136107
1743758993.9046316,0.0037468388176169574
1743758993.9056077,0.0037425115198904103
1743758993.9065835,0.0037825390238609737
1743758993.9075594,0.0037814571994293374
1743758993.9085355,0.0037135426656654674
1743758993.9095116,0.0036529604974938033
1743758993.9104877,0.0037033254349222305
1743758993.9114635,0.003733856924437315
1743758993.9124396,0.0037480408447632205
1743758993.9134157,0.0036913051634595985
1743758993.9143915,0.0036332472522950868
1743758993.9153674,0.0036935890150374983
1743758993.9163435,0.0037423913171757838
1743758993.9173198,0.0037681146981058157
1743758993.9182956,0.0037583782782210843
1743758993.9192715,0.0037352993570128313
1743758993.9202476,0.0037104173950851835
1743758993.9212236,0.003721716450260057
1743758993.9221995,0.0036897425281694567
1743758993.9231753,0.0035842045447275496
1743758993.9241517,0.0035256658227045324
1743758993.9251277,0.00354598008147638
1743758993.9261036,0.0036036773844970124
1743758993.9270794,0.003646108942760103
1743758993.9280555,0.0036694282693976086
1743758993.9290316,0.0036632979309516663
1743758993.9300075,0.003679765702855472
1743758993.9309833,0.003708854759795041
1743758993.9319596,0.003736140776015215
1743758993.9329357,0.003713302260236215
1743758993.9339116,0.003682410162577251
1743758993.9348874,0.003713302260236215
1743758993.9358635,0.0037397468574540045
1743758993.9368396,0.0037276063832767468
1743758993.9378157,0.0037352993570128313
1743758993.9387915,0.003752728750633647
1743758993.9397676,0.0037303710457131517
1743758993.9407437,0.003683491987008888
1743758993.9417195,0.0036060814387895387
1743758993.9426954,0.0035699004216870173
1743758993.9436715,0.0036005521139167284
1743758993.9446478,0.0035569185285073746
1743758993.9456236,0.0035922581266075123
1743758993.9465995,0.0036551241463570767
1743758993.9475756,0.0036798859055700984
1743758993.9485517,0.0036905839471718404
1743758993.9495275,0.0036855354331575356
1743758993.9505033,0.003641781645033556
1743758993.9514794,0.0036118511690916024
1743758993.9524558,0.0035743479221281914
1743758993.9534316,0.0035736267058404333
1743758993.9544075,0.003582521706722781
1743758993.9553835,0.003612692588093987
1743758993.9563596,0.0035974268433364444
1743758993.9573355,0.0035789156252839915
1743758993.9583113,0.0035656933266750962
1743758993.9592876,0.0035768721791353437
1743758993.9602637,0.0035801176524302546
1743758993.9612396,0.0036036773844970124
1743758993.9622154,0.0036428634694651925
1743758993.9631915,0.0036499554296281454
1743758993.9641676,0.0035773529899938493
1743758993.9651434,0.003519054673400085
1743758993.9661195,0.003532036566579727
1743758993.9670956,0.0035393689321719327
1743758993.9680717,0.0035774731927084753
1743758993.9690475,0.0036144956288133817
1743758993.9700234,0.003669187863968356
1743758993.9709995,0.0036886607037378196
1743758993.9719756,0.0036540423219254396
1743758993.9729517,0.0036239916432688605
1743758993.9739275,0.003630482589858682
1743758993.9749036,0.003638656374453271
1743758993.9758797,0.0036408200233165448
1743758993.9768555,0.0036403392124580397
1743758993.9778314,0.0036366129283046237
1743758993.9788074,0.0036179815075375447
1743758993.9797838,0.003607163263221176
1743758993.9807596,0.0036063218442187917
1743758993.9817355,0.0036379351581655134
1743758993.9827116,0.003636011914731492
1743758993.9836876,0.003593099545609897
1743758993.9846635,0.0036069228577919232
1743758993.9856393,0.0036206259672593236
1743758993.9866157,0.0036155774532450184
1743758993.9875917,0.0036035571817823863
1743758993.9885676,0.0036089663039405705
1743758993.9895434,0.0036078844795089343
1743758993.9905195,0.0036060814387895387
1743758993.9914956,0.00359658542433406
1743758993.9924715,0.0035862479908761965
1743758993.9934475,0.0036426230640359395
1743758993.9944236,0.0036714717155462563
1743758993.9953997,0.0036798859055700984
1743758993.9963756,0.0036780828648507037
1743758993.9973514,0.0036666636069612036
1743758993.9983275,0.0036521190784914188
1743758993.9993036,0.0036338482658682184
1743758994.0002797,0.003656205970788714
1743758994.0012555,0.0037166679362457514
1743758994.0022316,0.003678563675709209
1743758994.0032077,0.003598508667768081
1743758994.0041835,0.00361714008853516
1743758994.0051594,0.0036219481971202128
1743758994.0061355,0.0036486331997672553
1743758994.0071118,0.0036659423906734456
1743758994.0080876,0.0036410604287457978
1743758994.0090635,0.0036312038061464395
1743758994.0100396,0.0036051198170725285
1743758994.0110157,0.0035701408271162703
1743758994.0119915,0.003562447853380186
1743758994.0129673,0.003578074206281607
1743758994.0139434,0.0035631690696679434
1743758994.0149198,0.0035350416344453856
1743758994.0158956,0.0035420133918937116
1743758994.0168715,0.0035755499492744545
1743758994.0178475,0.0036029561682092547
1743758994.0188236,0.003631684617004945
1743758994.0197995,0.0036289199545685396
1743758994.0207753,0.0036342088740120974
1743758994.0217516,0.0036046390062140234
1743758994.0227277,0.0035888924505979754
1743758994.0237036,0.003566294340248228
1743758994.0246794,0.003542133594608338
1743758994.0256555,0.0035253052145606534
1743758994.0266316,0.0034902060218897687
1743758994.0276074,0.0035277092688531797
1743758994.0285835,0.003582281301293528
1743758994.0295596,0.003597787451480323
1743758994.0305357,0.003593580356468402
1743758994.0315115,0.0035809590714326388
1743758994.0324874,0.0035581205556536387
1743758994.0334635,0.003548624541198159
1743758994.0344396,0.0035410517701767014
1743758994.0354156,0.0035298729177164535
1743758994.0363915,0.003507274807366706
1743758994.0373676,0.003475901898849237
1743758994.0383437,0.0034575108835114103
1743758994.0393195,0.0034411633143222307
1743758994.0402954,0.0035090778480861007
1743758994.0412714,0.0035547548796441013
1743758994.0422478,0.0035554760959318594
1743758994.0432236,0.003567015556535986
1743758994.0441995,0.0035874500180224597
1743758994.0451756,0.003614014817954876
1743758994.0461516,0.003628318940995408
1743758994.0471275,0.003615817858674271
1743758994.0481033,0.0036225492106933444
1743758994.0490797,0.0035131647403833957
1743758994.0500557,0.0035224203494096215
1743758994.0510316,0.0035785550171401124
1743758994.0520074,0.0035915369103197547
1743758994.0529835,0.0035831227202959125
1743758994.0539596,0.003595864208046302
1743758994.0549355,0.0035944217754707865
1743758994.0559115,0.003578194408996233
1743758994.0568876,0.003575309543845202
1743758994.0578637,0.0035598033936584065
1743758994.0588396,0.0035245839982728957
1743758994.0598154,0.0034858787241632216
1743758994.0607915,0.003463641221957352
1743758994.0617676,0.00347806554771251
1743758994.0627437,0.003459434126945431
1743758994.0637195,0.0034458512201926573
1743758994.0646956,0.0034833544671560683
1743758994.0656717,0.0035147273756735375
1743758994.0666475,0.003544657851615491
1743758994.0676234,0.0035802378551448807
1743758994.0685995,0.0035656933266750962
1743758994.0695758,0.0035487447439127855
1743758994.0705516,0.0034944131169016898
1743758994.0715275,0.003556317514934243
1743758994.0725036,0.003615697655959645
1743758994.0734797,0.003609927925657581
1743758994.0744555,0.0035956238026170497
1743758994.0754313,0.003581319679576518
1743758994.0764077,0.0035934601537537755
1743758994.0773838,0.0036080046822235604
1743758994.0783596,0.003594061167326907
1743758994.0793355,0.0035642508940995805
1743758994.0803115,0.0034999424417745
1743758994.0812876,0.0034890039947435055
1743758994.0822635,0.00348527771059009
1743758994.0832393,0.0034935716978993056
1743758994.0842156,0.0034988606173428634
1743758994.0851917,0.003493451495184679
1743758994.0861676,0.0034940525087578107
1743758994.0871434,0.0034974181847673477
1743758994.0881195,0.0034743392635590946
1743758994.0890956,0.0035207375114048533
1743758994.0900714,0.0035588417719413963
1743758994.0910475,0.003581319679576518
1743758994.0920236,0.003577232787279223
1743758994.0929997,0.003576271165562212
1743758994.0939755,0.0035494659602005436
1743758994.0949514,0.003546340689620259
1743758994.0959275,0.003579396436142496
1743758994.0969036,0.0035653327185312176
1743758994.0978796,0.0035210981195487323
1743758994.0988555,0.0035392487294573067
1743758994.0998316,0.0035396093376011853
1743758994.1008077,0.0034976585901966
1743758994.1017835,0.0035159294028198006
1743758994.1027594,0.0035015050770646427
1743758994.1037354,0.0034755412907053577
1743758994.1047118,0.0034690503441155364
1743758994.1056876,0.0034683291278277788
1743758994.1066635,0.0034844362915877054
1743758994.1076396,0.0034617179785233314
1743758994.1086156,0.003420728852835757
1743758994.1095915,0.0034001741886346567
1743758994.1105673,0.0034115934465241567
1743758994.1115437,0.0034456108147634047
1743758994.1125197,0.0034656846681059995
1743758994.1134956,0.003472656425554326
1743758994.1144714,0.0034827534535829367
1743758994.1154475,0.003500904063491511
1743758994.1164236,0.003504389942215674
1743758994.1173995,0.0035317961611504747
1743758994.1183755,0.0035254254172752794
1743758994.1193516,0.0034862393323071
1743758994.1203277,0.003461958383952584
1743758994.1213036,0.003479748385717279
1743758994.1222794,0.0034944131169016898
1743758994.1232555,0.0034904464273190212
1743758994.1242316,0.0034875615621679894
1743758994.1252077,0.003458232099799168
1743758994.1261835,0.0034394804763174624
1743758994.1271596,0.003458111897084542
1743758994.1281357,0.0034607563568063208
1743758994.1291115,0.0034617179785233314
1743758994.1300874,0.0034827534535829367
1743758994.1310635,0.003488523183885
1743758994.1320398,0.003493451495184679
1743758994.1330156,0.0034785463585710157
1743758994.1339915,0.0034720554119811943
1743758994.1349676,0.003465203857247495
1743758994.1359437,0.003430946083578994
1743758994.1369195,0.003388394322601277
1743758994.1378953,0.003388153917172025
1743758994.1388717,0.0033964479044812407
1743758994.1398478,0.0035017454824938948
1743758994.1408236,0.0035612458262339226
1743758994.1417994,0.003583603531154418
1743758994.1427755,0.0036143754260987548
1743758994.1437516,0.003643464483038324
1743758994.1447275,0.0036029561682092547
1743758994.1457033,0.003555235690502607
1743758994.1466796,0.0035393689321719327
1743758994.1476557,0.0034310662862936203
1743758994.1486316,0.003262662283102149
1743758994.1496074,0.003320239383408155
1743758994.1505835,0.003398491350629888
1743758994.1515596,0.003449817909775326
1743758994.1525354,0.003456789667223652
1743758994.1535115,0.0034530633830702363
1743758994.1544876,0.0034427259496123733
1743758994.1554637,0.003417122771396967
1743758994.1564395,0.003425657164135436
1743758994.1574154,0.0034525825722117307
1743758994.1583915,0.00345294318035561
1743758994.1593676,0.003441644125180736
1743758994.1603436,0.0034493370989168207
1743758994.1613195,0.0034725362228397
1743758994.1622956,0.0034831140617268158
1743758994.1632717,0.0034953747386187004
1743758994.1642475,0.003495735346762579
1743758994.1652234,0.003458953316086926
1743758994.1661994,0.0034357541921640465
1743758994.1671758,0.0034264985831378198
1743758994.1681516,0.0033927216203278247
1743758994.1691275,0.0033888751334597827
1743758994.1701035,0.003408588378658499
1743758994.1710796,0.0034160409469653308
1743758994.1720555,0.003412915676385046
1743758994.1730313,0.003410271216663267
1743758994.1740077,0.0034105116220925196
1743758994.1749837,0.003412915676385046
1743758994.1759596,0.003409069189517004
1743758994.1769354,0.0034083479732292463
1743758994.1779115,0.003414117703531309
1743758994.1788876,0.0034123146628119144
1743758994.1798635,0.0034136368926728044
1743758994.1808395,0.0034077469596561147
1743758994.1818156,0.0033977701343421303
1743758994.1827917,0.003386951890025762
1743758994.1837676,0.0033853892547356193
1743758994.1847434,0.0034180843931139776
1743758994.1857195,0.003427219799425578
1743758994.1866956,0.0034121944600972883
1743758994.1876717,0.0033929620257570777
1743758994.1886475,0.003398611553344514
1743758994.1896236,0.0034292632455742256
1743758994.1905997,0.0034625593975257155
1743758994.1915755,0.003441283517036857
1743758994.1925514,0.0034209692582650095
1743758994.1935275,0.0033706043208365823
1743758994.1945038,0.0033788983081457983
1743758994.1954796,0.0034492168962021942
1743758994.1964555,0.003435874394878673
1743758994.1974316,0.003408588378658499
1743758994.1984076,0.0034079873650853672
1743758994.1993835,0.0034323885161545095
1743758994.2003593,0.0034269793939963253
1743758994.2013357,0.003422652096269778
1743758994.2023118,0.0034397208817467154
1743758994.2032876,0.003403059053785688
1743758994.2042634,0.0033427172910432765
1743758994.2052395,0.00332757174900036
1743758994.2062156,0.0033613487118103556
1743758994.2071915,0.003380941754294445
1743758994.2081673,0.0033843074303039826
1743758994.2091436,0.0033805811461505666
1743758994.2101197,0.0033737295914168662
1743758994.2110956,0.003360988103666477
1743758994.2120714,0.00335762242765694
1743758994.2130475,0.0033832256058723455
1743758994.2140236,0.0034040206755026983
1743758994.2149994,0.003405583310792841
1743758994.2159755,0.003418204595828604
1743758994.2169516,0.0034179641903993516
1743758994.2179277,0.00341736317682622
1743758994.2189035,0.0034073863515122356
1743758994.2198794,0.0034311864890082464
1743758994.2208555,0.0034094297976608825
1743758994.2218318,0.0033370677634558393
1743758994.2228076,0.0033311778304391496
1743758994.2237835,0.0033514920892109977
1743758994.2247596,0.00335762242765694
1743758994.2257357,0.00336808006382943
1743758994.2267115,0.003369522496404945
1743758994.2276874,0.0033280525598588656
1743758994.2286634,0.0033193979644057705
1743758994.2296398,0.003345121345335803
1743758994.2306156,0.003336226344453455
1743758994.2315915,0.003355458778793666
1743758994.2325675,0.0033929620257570777
1743758994.2335436,0.0034020974320686775
1743758994.2345195,0.0034273400021402043
1743758994.2354953,0.0033966883099104932
1743758994.2364717,0.003369282090975693
1743758994.2374477,0.0033805811461505666
1743758994.2384236,0.0033312980331537765
1743758994.2393994,0.00327828863600357
1743758994.2403755,0.0033137484368183337
1743758994.2413516,0.003330336411436766
1743758994.2423275,0.003308459517374776
1743758994.2433035,0.003333581884731676
1743758994.2442796,0.0033696426991195716
1743758994.2452557,0.003372287158841351
1743758994.2462316,0.003331658641297655
1743758994.2472074,0.0033184363426887603
1743758994.2481835,0.0033404334394653763
1743758994.2491596,0.0033404334394653763
1743758994.2501357,0.0033175949236863757
1743758994.2511115,0.003301367557211823
1743758994.2520876,0.0033112241798111813
1743758994.2530637,0.0033499294539208555
1743758994.2540395,0.003357742630371566
1743758994.2550154,0.003331658641297655
1743758994.2559915,0.0033355051281656976
1743758994.2569678,0.0033552183733644137
1743758994.2579436,0.0033548577652205342
1743758994.2589195,0.0033312980331537765
1743758994.2598956,0.0032905493128954546
1743758994.2608716,0.003327812154429613
1743758994.2618475,0.003351972900069503
1743758994.2628233,0.0033302162087221394
1743758994.2637997,0.003286702826027412
1743758994.2647758,0.0032958382323390128
1743758994.2657516,0.00332757174900036
1743758994.2667274,0.0033302162087221394
1743758994.2677035,0.003327331343571108
1743758994.2686796,0.0032889866776053124
1743758994.2696555,0.0032912705291832122
1743758994.2706313,0.003307377692943139
1743758994.2716076,0.0033216818159836708
1743758994.2725837,0.0033436789127602867
1743758994.2735596,0.0033340626955901814
1743758994.2745354,0.0033331010738731712
1743758994.2755115,0.0033276919517149866
1743758994.2764876,0.0033133878286744547
1743758994.2774634,0.0033099019499502912
1743758994.2784395,0.003297040259485276
1743758994.2794156,0.00328285633915937
1743758994.2803917,0.003273961338277023
1743758994.2813675,0.0032760047844256697
1743758994.2823434,0.0032685522161188386
1743758994.2833195,0.0032769664061426808
1743758994.2842958,0.003278168433288944
1743758994.2852716,0.0032620612695290173
1743758994.2862475,0.003270956270411365
1743758994.2872236,0.0032873038396005437
1743758994.2881997,0.0032833371500178756
1743758994.2891755,0.0032692734324065963
1743758994.2901514,0.0032671097835433225
1743758994.2911274,0.003267951202545707
1743758994.2921038,0.003269874445979728
1743758994.2930796,0.003264825931965422
1743758994.2940555,0.0032621814722436433
1743758994.2950315,0.003260618836953501
1743758994.2960076,0.003258455188090228
1743758994.2969835,0.0032689128242627172
1743758994.2979593,0.003282615933730117
1743758994.2989357,0.0032790098522913276
1743758994.2999117,0.0032733603247038913
1743758994.3008876,0.0032536470795051747
1743758994.3018634,0.0032528056605027906
1743758994.3028395,0.003252084444215033
1743758994.3038156,0.003240665186325533
1743758994.3047915,0.003236578294028238
1743758994.3057675,0.003225279238853364
1743758994.3067436,0.0032268418741435057
1743758994.3077197,0.003235256064167348
1743758994.3086956,0.003236578294028238
1743758994.3096714,0.003241747010757169
1743758994.3106475,0.003247997551917738
1743758994.3116236,0.003265787553682433
1743758994.3125997,0.0032880250558883013
1743758994.3135755,0.0033163928965401126
1743758994.3145516,0.0033454819534796815
1743758994.3155277,0.003353535535359645
1743758994.3165035,0.003350410264779361
1743758994.3174794,0.0033456021561943084
1743758994.3184555,0.003337788979743598
1743758994.3194318,0.0033208403969812866
1743758994.3204076,0.0033111039770965544
1743758994.3213835,0.003274081540991649
1743758994.3223596,0.0032370591048867426
1743758994.3233356,0.0032092922778080638
1743758994.3243115,0.003225279238853364
1743758994.3252873,0.0032356166723112273
1743758994.3262637,0.0032644653238215436
1743758994.3272398,0.0032644653238215436
1743758994.3282156,0.0033019685707849546
1743758994.3291914,0.003338870804175234
1743758994.3301675,0.0033268505327126024
1743758994.3311436,0.0033046130305067335
1743758994.3321195,0.0033555789815082927
1743758994.3330953,0.0033629113471004978
1743758994.3340716,0.003332740465729292
1743758994.3350477,0.0033239656675615706
1743758994.3360236,0.00330244938164346
1743758994.3369994,0.0032517238360711535
1743758994.3379755,0.003222875184560837
1743758994.3389516,0.003243550051476564
1743758994.3399274,0.003233693428877206
1743758994.3409035,0.0032179468732611584
1743758994.3418796,0.0032205913329829377
1743758994.3428557,0.003236458091313611
1743758994.3438315,0.003264705729250796
1743758994.3448074,0.003283697758161754
1743758994.3457835,0.0032614602559558857
1743758994.3467598,0.0032452328894813326
1743758994.3477356,0.003247757146488485
1743758994.3487115,0.003233453023447953
1743758994.3496876,0.0032318903881578113
1743758994.3506637,0.0032339338343064586
1743758994.3516395,0.0032389823483207642
1743758994.3526154,0.0032381409293183797
1743758994.3535914,0.003215783224397885
1743758994.3545678,0.003214340791822369
1743758994.3555436,0.0032244378198509793
1743758994.3565195,0.003237660118459874
1743758994.3574955,0.003235256064167348
1743758994.3584716,0.0032312893745846797
1743758994.3594475,0.003225279238853364
1743758994.3604233,0.00323453484787959
1743758994.3613997,0.0032430692406180592
1743758994.3623757,0.003266989580828696
1743758994.3633516,0.0032736007301331434
1743758994.3643274,0.003288505866746807
1743758994.3653035,0.0032792502577205806
1743758994.3662796,0.0032663885672555644
1743758994.3672554,0.0032519642415004065
1743758994.3682315,0.0032399439700377744
1743758994.3692076,0.0032360974831697324
1743758994.3701837,0.003226120657855748
1743758994.3711596,0.0032169852515441483
1743758994.3721354,0.003204243763793758
1743758994.3731115,0.0031963103846284215
1743758994.3740876,0.003185612343026679
1743758994.3750637,0.0031829678833049
1743758994.3760395,0.003182246667017142
1743758994.3770156,0.003192704303189632
1743758994.3779917,0.00320941248052269
1743758994.3789675,0.0032240772117071007
1743758994.3799434,0.0032342944424503376
1743758994.3809195,0.003241867213471796
1743758994.3818958,0.0032401843754670274
1743758994.3828716,0.0032278034958605167
1743758994.3838475,0.0032126579538176003
1743758994.3848236,0.003198474033491695
1743758994.3857996,0.003183328491448779
1743758994.3867755,0.0031743132878518047
1743758994.3877513,0.003153518218221452
1743758994.3887277,0.0031458252444853674
1743758994.3897038,0.0031662597059718416
1743758994.3906796,0.003178520382863726
1743758994.3916554,0.0031852517348828
1743758994.3926315,0.0032024407230743634
1743758994.3936076,0.003205686196369274
1743758994.3945835,0.0031983538307770684
1743758994.3955593,0.0032184276841196635
1743758994.3965356,0.0032263610632850006
1743758994.3975117,0.0032065276153716584
1743758994.3984876,0.0031802032208684944
1743758994.3994634,0.003217826670546532
1743758994.4004395,0.003269513837835849
1743758994.4014156,0.0032806926902960963
1743758994.4023914,0.003273961338277023
1743758994.4033675,0.003263864310248412
1743758994.4043436,0.0032501612007810117
1743758994.4053197,0.0032278034958605167
1743758994.4062955,0.003211576129385963
1743758994.4072714,0.003195468965626037
1743758994.4082475,0.0031900598434678527
1743758994.4092238,0.003188737613606963
1743758994.4101996,0.003178159774719847
1743758994.4111755,0.003159528353952768
1743758994.4121516,0.003143300987478215
1743758994.4131277,0.003125751391142772
1743758994.4141035,0.0031091634165243405
1743758994.4150794,0.0031033936862222776
1743758994.4160554,0.0031188998364090723
1743758994.4170318,0.0031251503775696406
1743758994.4180076,0.003123467539564873
1743758994.4189835,0.0031251503775696406
1743758994.4199595,0.0031327231485910986
1743758994.4209356,0.0031342857838812413
1743758994.4219115,0.003150513150355794
1743758994.4228873,0.003152436393789815
1743758994.4238636,0.0031336847703081097
1743758994.4248397,0.0031285160535791776
1743758994.4258156,0.0031229867287063673
1743758994.4267914,0.003139454500610173
1743758994.4277675,0.0031506333530704205
1743758994.4287436,0.003175034504139563
1743758994.4297194,0.0031846507213096685
1743758994.4306955,0.0031868143701729423
1743758994.4316716,0.0031898194380386
1743758994.4326477,0.0031755153149980683
1743758994.4336236,0.0031616920028160415
1743758994.4345994,0.003150993961214299
1743758994.4355755,0.0031484697042071467
1743758994.4365516,0.0031240685531380044
1743758994.4375277,0.003097263347776335
1743758994.4385035,0.0030717803722755555
1743758994.4394796,0.0030634863849663394
1743758994.4404557,0.003045095369628513
1743758994.4414315,0.0030142032719695493
1743758994.4424074,0.00301612651540357
1743758994.4433835,0.0030634863849663394
1743758994.4443598,0.003114332133253272
1743758994.4453356,0.0031416181494734463
1743758994.4463115,0.0031784001801490997
1743758994.4472876,0.0031862133565998107
1743758994.4482636,0.003169865787410631
1743758994.4492395,0.0031418585549026993
1743758994.4502153,0.0031148129441117777
1743758994.4511917,0.003099787604783488
1743758994.4521677,0.0030846420627405717
1743758994.4531436,0.003074545034711961
1743758994.4541194,0.0030792329405823875
1743758994.4550955,0.0030835602383089346
1743758994.4560716,0.0031033936862222776
1743758994.4570475,0.003121424093416225
1743758994.4580233,0.0031275544318621674
1743758994.4589996,0.003118419025550567
1743758994.4599757,0.003128155445435299
1743758994.4609516,0.0031417383521880724
1743758994.4619274,0.003156883894230989
1743758994.4629035,0.003146306055343873
1743758994.4638796,0.003136569635459141
1743758994.4648557,0.003119500849982204
1743758994.4658315,0.0031068795649464406
1743758994.4668076,0.0031066391595171877
1743758994.4677837,0.0031023118617906405
1743758994.4687595,0.003104595713368541
1743758994.4697354,0.0031026724699345196
1743758994.4707115,0.0031125290925338774
1743758994.4716878,0.0031114472681022403
1743758994.4726636,0.003101710848217509
1743758994.4736395,0.003097503753205588
1743758994.4746156,0.0030996674020688612
1743758994.4755917,0.0030791127378677614
1743758994.4765675,0.0030520671270768394
1743758994.4775434,0.0030606015198153085
1743758994.4785194,0.00307718949443374
1743758994.4794958,0.0030783915215800033
1743758994.4804716,0.003071299561417051
1743758994.4814475,0.0030632459795370873
1743758994.4824235,0.003043292328909118
1743758994.4833996,0.0030152850964011864
1743758994.4843755,0.002995091040343965
1743758994.4853513,0.0029747767815721175
1743758994.4863276,0.002962756510109485
1743758994.4873037,0.002952419076651622
1743758994.4882796,0.0029495342115005902
1743758994.4892554,0.00293811495361109
1743758994.4902315,0.0029503756305029744
1743758994.4912076,0.002988600093754144
1743758994.4921834,0.0030388448284679446
1743758994.4931595,0.003105076524227046
1743758994.4941356,0.003138132270749283
1743758994.4951117,0.003144863622768357
1743758994.4960876,0.003126713012859783
1743758994.4970634,0.003110125038241351
1743758994.4980395,0.0031038744970807827
1743758994.4990156,0.0031038744970807827
1743758994.4999917,0.003110365443670604
1743758994.5009675,0.0031094038219535935
1743758994.5019436,0.0030919744283327767
1743758994.5029197,0.0030813965894456613
1743758994.5038955,0.0030812763867310348
1743758994.5048714,0.003074545034711961
1743758994.5058475,0.0030630055741078348
1743758994.5068238,0.0030544711813693657
1743758994.5077996,0.0030353589497437816
1743758994.5087755,0.0030292286112978393
1743758994.5097516,0.003033555909024387
1743758994.5107276,0.003052427735220719
1743758994.5117035,0.003068414696266019
1743758994.5126793,0.0030738238184242032
1743758994.5136557,0.0030702177369854138
1743758994.5146317,0.0030656500338296136
1743758994.5156076,0.00304846104563805
1743758994.5165834,0.003025021516285918
1743758994.5175595,0.0030083133389528596
1743758994.5185356,0.0030020627977922917
1743758994.5195115,0.0030029042167946753
1743758994.5204873,0.002994009215912328
1743758994.5214636,0.002993167796909944
1743758994.5224397,0.0030021830005069177
1743758994.5234156,0.003026223543432181
1743758994.5243914,0.0030375225986070554
1743758994.5253675,0.0030387246257533185
1743758994.5263436,0.0030374023958924285
1743758994.5273197,0.0030319932737342442
1743758994.5282955,0.0030286275977247077
1743758994.5292716,0.003034878138885276
1743758994.5302477,0.003033676111739013
1743758994.5312235,0.0030164871235474496
1743758994.5321994,0.0029904031344735386
1743758994.5331755,0.002971290902847954
1743758994.5341518,0.0029496544142152167
1743758994.5351276,0.002948332184354327
1743758994.5361035,0.0029666029969775275
1743758994.5370796,0.0029864364448908697
1743758994.5380557,0.0029906435399027907
1743758994.5390315,0.0030227376647080184
1743758994.5400074,0.0030709389532731714
1743758994.5409834,0.003124429161281883
1743758994.5419598,0.0031787607882929787
1743758994.5429356,0.003203402344791374
1743758994.5439115,0.003191622478757995
1743758994.5448875,0.003161211191957536
1743758994.5458636,0.003140295919612557
1743758994.5468395,0.0031113270653876143
1743758994.5478153,0.003095340104342314
1743758994.5487916,0.003078271318865377
1743758994.5497677,0.003069256115268403
1743758994.5507436,0.0030600005062421764
1743758994.5517194,0.0030372821931778024
1743758994.5526955,0.003024660908142039
1743758994.5536716,0.003030791246587981
1743758994.5546474,0.0030311518547318605
1743758994.5556235,0.003030791246587981
1743758994.5565996,0.0030399266528995817
1743758994.5575757,0.003044975166913887
1743758994.5585515,0.0030437731397676237
1743758994.5595274,0.003027545773293071
1743758994.5605035,0.0030113184068185175
1743758994.5614796,0.0029979759054949966
1743758994.5624557,0.002988600093754144
1743758994.5634315,0.0029854748231738595
1743758994.5644076,0.002985715228603112
1743758994.5653837,0.0029953314457732173
1743758994.5663595,0.0029983365136388752
1743758994.5673354,0.0029994183380705123
1743758994.5683115,0.0029983365136388752
1743758994.5692878,0.0030026638113654232
1743758994.5702636,0.0030073517172358494
1743758994.5712395,0.00300146178421916
1743758994.5722156,0.003031512462875739
1743758994.5731916,0.0030835602383089346
1743758994.5741675,0.0031151735522556567
1743758994.5751433,0.003116014971258041
1743758994.5761197,0.003095820915200819
1743758994.5770957,0.0030838006437381876
1743758994.5780716,0.0030658904392588658
1743758994.5790474,0.0030550721949424973
1743758994.5800235,0.0030341569225975184
1743758994.5809996,0.0030136022583964178
1743758994.5819755,0.0030062698928042127
1743758994.5829513,0.0029968940810633595
1743758994.5839276,0.0029812677281619384
1743758994.5849037,0.0029765798222915123
1743758994.5858796,0.0029704494838455695
1743758994.5868554,0.0029706898892748225
1743758994.5878315,0.0029663625915482745
1743758994.5888076,0.00296588178068977
1743758994.5897837,0.0029715313082772066
1743758994.5907595,0.002970209078416317
1743758994.5917356,0.0029544625228002694
1743758994.5927117,0.002940759413332869
1743758994.5936875,0.0029416008323352536
1743758994.5946634,0.002926455290292337
1743758994.5956395,0.002909266302100774
1743758994.5966158,0.0028966450170650106
1743758994.5975916,0.0029034965717987106
1743758994.5985675,0.002923330019712053
1743758994.5995436,0.002978623268440159
1743758994.6005197,0.00304389334248225
1743758994.6014955,0.003059399492669045
1743758994.6024714,0.0030532691542231026
1743758994.6034474,0.0030365609768900448
1743758994.6044238,0.0030259831380029284
1743758994.6053996,0.0030155255018304386
1743758994.6063755,0.0030111982041038914
1743758994.6073515,0.003020213407700865
1743758994.6083276,0.0030167275289767017
1743758994.6093035,0.003027425570578444
1743758994.6102793,0.003027305367863818
1743758994.6112556,0.00299917793264126
1743758994.6122317,0.00298415259331297
1743758994.6132076,0.002975497997859875
1743758994.6141834,0.002976940430435391
1743758994.6151595,0.00297958489015717
1743758994.6161356,0.0029934082023391965
1743758994.6171114,0.0029924465806221855
1743758994.6180875,0.0029873980666078807
1743758994.6190636,0.002969848470272438
1743758994.6200397,0.0029650403616873853
1743758994.6210155,0.002972132321850338
1743758994.6219914,0.002981628336305817
1743758994.6229675,0.00298415259331297
1743758994.6239436,0.0029788636738694117
1743758994.6249197,0.002973093943567349
1743758994.6258955,0.002959631239529201
1743758994.6268716,0.002956626171663543
1743758994.6278477,0.002962756510109485
1743758994.6288235,0.002964198942685001
1743758994.6297994,0.0029747767815721175
1743758994.6307755,0.00297141110556258
1743758994.6317518,0.0029792242820132907
1743758994.6327276,0.0029923263779075594
1743758994.6337035,0.0030214154348471283
1743758994.6346796,0.0030239396918542816
1743758994.6356556,0.003010957798674639
1743758994.6366315,0.0029851142150299805
1743758994.6376073,0.0029644393481142537
1743758994.6385837,0.0029516978603638644
1743758994.6395597,0.0029340280613137956
1743758994.6405356,0.002906261234235116
1743758994.6415114,0.0028732054877128785
1743758994.6424875,0.0028387073086151254
1743758994.6434636,0.0028244031855745935
1743758994.6444395,0.0028044495349466244
1743758994.6454153,0.0028222395367113197
1743758994.6463916,0.00284279420091242
1743758994.6473677,0.0028627478515403887
1743758994.6483436,0.002882821704882984
1743758994.6493194,0.002932345223309027
1743758994.6502955,0.0030085537443821126
1743758994.6512716,0.0030626449659639557
1743758994.6522477,0.0031031532807930247
1743758994.6532235,0.0031531576100775733
1743758994.6541996,0.003145584839056115
1743758994.6551757,0.00310135024007363
1743758994.6561515,0.003056755032947266
1743758994.6571274,0.0030215356375617552
1743758994.6581035,0.0029873980666078807
1743758994.6590798,0.002968045429553043
1743758994.6600556,0.0029498948196444697
1743758994.6610315,0.002923209816997427
1743758994.6620076,0.0028909954894775734
1743758994.6629837,0.0028745277175737678
1743758994.6639595,0.0028578195402407095
1743758994.6649354,0.002832096159310678
1743758994.6659114,0.0028153879819776194
1743758994.6668878,0.0028108202788218197
1743758994.6678636,0.0028188738607017824
1743758994.6688395,0.002834019402744699
1743758994.6698155,0.0028704408252764727
1743758994.6707916,0.002895803598062626
1743758994.6717675,0.002901813733793942
1743758994.6727433,0.002909146099386148
1743758994.6737196,0.002907583464096005
1743758994.6746957,0.002888952043328926
1743758994.6756716,0.0028821004885952258
1743758994.6766474,0.0028774125827247996
1743758994.6776235,0.002897847044211274
1743758994.6785996,0.0029379947508964637
1743758994.6795754,0.002986797053034749
1743758994.6805515,0.003019251785983855
1743758994.6815276,0.002986917255749375
1743758994.6825037,0.0029765798222915123
1743758994.6834795,0.002957347387951301
1743758994.6844554,0.0029340280613137956
1743758994.6854315,0.002903135963654832
1743758994.6864076,0.0028894328541874317
1743758994.6873837,0.002893519746484726
1743758994.6883595,0.0029266956957215897
1743758994.6893356,0.0029383553590403427
1743758994.6903117,0.002937393737323332
1743758994.6912875,0.002949173603356711
1743758994.6922634,0.0029472503599226904
1743758994.6932395,0.0029351098857454323
1743758994.6942158,0.002930421979875006
1743758994.6951916,0.0029128723835395633
1743758994.6961675,0.0029083046803837632
1743758994.6971436,0.002898808665928284
1743758994.6981196,0.0028704408252764727
1743758994.6990955,0.002861305418964873
1743758994.7000713,0.0028853459618901366
1743758994.7010477,0.002926214884863085
1743758994.7020237,0.00295085644136148
1743758994.7029996,0.002982589958022828
1743758994.7039754,0.0029906435399027907
1743758994.7049515,0.003011438609533144
1743758994.7059276,0.0030007405679314016
1743758994.7069035,0.002969848470272438
1743758994.7078793,0.002953981711941764
1743758994.7088556,0.0029184017084123736
1743758994.7098317,0.002878013596297931
1743758994.7108076,0.00285421345880192
1743758994.7117834,0.0028312547403082935
1743758994.7127595,0.002827889064298757
1743758994.7137356,0.0028492851475022413
1743758994.7147117,0.002890755084048321
1743758994.7156875,0.0029128723835395633
1743758994.7166636,0.002916478464978353
1743758994.7176397,0.0029153966405467157
1743758994.7186155,0.002936432115606322
1743758994.7195914,0.0029489331979274586
1743758994.7205675,0.002947009954493438
1743758994.7215438,0.002936912926464827
1743758994.7225196,0.002916478464978353
1743758994.7234955,0.0029311431961627638
1743758994.7244716,0.002954342320085643
1743758994.7254477,0.0029812677281619384
1743758994.7264235,0.00297141110556258
1743758994.7273993,0.0029536211037978852
1743758994.7283754,0.002947851373495822
1743758994.7293518,0.002944846305630164
1743758994.7303276,0.0029342684667430477
1743758994.7313035,0.002930421979875006
1743758994.7322795,0.0029170794785514844
1743758994.7332556,0.00290614103152049
1743758994.7342315,0.002916839073122232
1743758994.7352073,0.002936191710177069
1743758994.7361836,0.0029424422513376377
1743758994.7371597,0.0029241714387144373
1743758994.7381356,0.0028825812994537313
1743758994.7391114,0.0028723640687104944
1743758994.7400875,0.0028704408252764727
1743758994.7410636,0.0028634690678281467
1743758994.7420394,0.002839428524902883
1743758994.7430155,0.002836423457037225
1743758994.7439916,0.0028449578497756933
1743758994.7449677,0.0028473619040682197
1743758994.7459435,0.002884504542887752
1743758994.7469194,0.002951337252219985
1743758994.7478955,0.0030292286112978393
1743758994.7488716,0.0030268245570053125
1743758994.7498477,0.0029905233371881647
1743758994.7508235,0.002964198942685001
1743758994.7517996,0.002954222117371017
1743758994.7527757,0.00294400488662778
1743758994.7537515,0.0029431634676253954
1743758994.7547274,0.002952419076651622
1743758994.7557034,0.0029791040792986646
1743758994.7566798,0.002995812256631723
1743758994.7576556,0.003010236582386881
1743758994.7586315,0.003014684082828055
1743758994.7596076,0.0029780222548670275
1743758994.7605836,0.002959631239529201
1743758994.7615595,0.0029342684667430477
1743758994.7625353,0.002921767384421911
1743758994.7635117,0.0028911156921921995
1743758994.7644877,0.0028516892017947677
1743758994.7654636,0.0028420729846246624
1743758994.7664394,0.0028419527819100354
1743758994.7674155,0.0028338992000300728
1743758994.7683916,0.0028482033230706042
1743758994.7693675,0.002861425621679499
1743758994.7703435,0.0028578195402407095
1743758994.7713196,0.0028531316343702834
1743758994.7722957,0.002865752919406047
1743758994.7732716,0.002893038935626221
1743758994.7742474,0.002913593599827321
1743758994.7752235,0.00294496650834479
1743758994.7761996,0.0030096355688137492
1743758994.7771757,0.003045335775057766
1743758994.7781515,0.003026223543432181
1743758994.7791276,0.0030051880683725756
1743758994.7801037,0.002997374891921865
1743758994.7810795,0.002988600093754144
1743758994.7820554,0.0029673242132652856
1743758994.7830315,0.0029431634676253954
1743758994.7840078,0.0029216471817072845
1743758994.7849836,0.0029330664395967846
1743758994.7859595,0.0029275371147239743
1743758994.7869356,0.0029459281300618007
1743758994.7879117,0.002927897722867853
1743758994.7888875,0.0029006117066476787
1743758994.7898633,0.0028837833265999945
1743758994.7908394,0.0028953227872041206
1743758994.7918158,0.0029434038730546484
1743758994.7927916,0.002997014283777986
1743758994.7937675,0.0030573560465203976
1743758994.7947435,0.003110365443670604
1743758994.7957196,0.0031220251069893567
1743758994.7966955,0.003091493617474272
1743758994.7976713,0.0030750258455704664
1743758994.7986476,0.0030547115867986187
1743758994.7996237,0.003045335775057766
1743758994.8005996,0.003033796314453639
1743758994.8015754,0.003015886109974318
1743758994.8025515,0.003004587054799444
1743758994.8035276,0.0029947304322000858
1743758994.8045034,0.0029986971217827543
1743758994.8054795,0.00297958489015717
1743758994.8064556,0.0029611938748193433
1743758994.8074317,0.0029455675219179217
1743758994.8084075,0.0029241714387144373
1743758994.8093834,0.0029159976541198473
1743758994.8103595,0.0028996500849306685
1743758994.8113356,0.0028881106243265416
1743758994.8123116,0.0029098673156739054
1743758994.8132875,0.0029358311020331903
1743758994.8142636,0.0029551837390880274
1743758994.8152397,0.0029575877933805538
1743758994.8162155,0.002951217049505359
1743758994.8171914,0.0029360715074624425
1743758994.8181674,0.002952178671222369
1743758994.8191438,0.002962996915538738
1743758994.8201196,0.0029884798910395174
1743758994.8210955,0.003022136651134887
1743758994.8220716,0.0030648086148272295
1743758994.8230476,0.003076708683575235
1743758994.8240235,0.0030931764554790408
1743758994.8249993,0.0031049563215124194
1743758994.8259757,0.003102792672649146
1743758994.8269517,0.003120462471699215
1743758994.8279276,0.0031473878797755096
1743758994.8289034,0.0031482292987778937
1743758994.8298795,0.0031294776752961886
1743758994.8308556,0.003119380647267578
1743758994.8318315,0.0031208230798430935
1743758994.8328075,0.0031241887558526305
1743758994.8337836,0.003113130106107009
1743758994.8347597,0.003100629023785872
1743758994.8357356,0.0030888491577524928
1743758994.8367114,0.0030804349677286506
1743758994.8376875,0.0030592792899544184
1743758994.8386636,0.0030515863162183343
1743758994.8396397,0.0030518267216475873
1743758994.8406155,0.0030531489515084765
1743758994.8415916,0.0030358397606022867
1743758994.8425677,0.0030210548267032497
1743758994.8435435,0.0030138426638256707
1743758994.8445194,0.0030145638801134284
1743758994.8454955,0.003032233679163497
1743758994.8464718,0.0030429317207652396
1743758994.8474476,0.00303932563932645
1743758994.8484235,0.0030508650999305762
1743758994.8493996,0.0030716601695609295
1743758994.8503757,0.0030777905080068718
1743758994.8513515,0.0030721409804194346
1743758994.8523273,0.003047980234779545
1743758994.8533037,0.003041248882760471
1743758994.8542798,0.0030429317207652396
1743758994.8552556,0.0030584378709520347
1743758994.8562315,0.0031056775378001775
1743758994.8572075,0.003143300987478215
1743758994.8581836,0.003160970786528284
1743758994.8591595,0.003171668828130026
1743758994.8601353,0.0031630142326769307
1743758994.8611116,0.003142579771190457
1743758994.8620877,0.003124669566711136
1743758994.8630636,0.0031375312571761513
1743758994.8640394,0.0031541192317945835
1743758994.8650155,0.0031797224100099893
1743758994.8659916,0.0032108549130982055
1743758994.8669674,0.0032278034958605167
1743758994.8679435,0.0032048447773668897
1743758994.8689196,0.003176957747573584
1743758994.8698957,0.0031556818670847257
1743758994.8708715,0.003137290851746899
1743758994.8718474,0.003104355307939288
1743758994.8728235,0.0030749056428558403
1743758994.8737996,0.003052307532506092
1743758994.8747756,0.003031512462875739
1743758994.8757515,0.0029836717824544647
1743758994.8767276,0.002953260495654006
1743758994.8777037,0.0029537413065125113
1743758994.8786795,0.0029601120503877066
1743758994.8796554,0.0029472503599226904
1743758994.8806314,0.0029403988051889905
1743758994.8816078,0.0029484523870689536
1743758994.8825836,0.0029817485390204435
1743758994.8835595,0.003071419764131677
1743758994.8845356,0.0031603697729551523
1743758994.8855116,0.0032154226162540056
1743758994.8864875,0.003246555119342222
1743758994.8874633,0.003277206811571933
1743758994.8884397,0.0032803320821522173
1743758994.8894157,0.0032659077563970593
1743758994.8903916,0.0032662683645409384
1743758994.8913674,0.003251363227927275
1743758994.8923435,0.0032429490379034323
1743758994.8933196,0.003243910659620443
1743758994.8942955,0.0032644653238215436
1743758994.8952715,0.003248117754632364
1743758994.8962476,0.0032202307248390583
1743758994.8972237,0.0032070084262301635
1743758994.8981996,0.0032035225475060005
1743758994.8991754,0.0032226347791315846
1743758994.9001515,0.0032296065365799115
1743758994.9011276,0.0032234761981339687
1743758994.9021037,0.003185371937597426
1743758994.9030795,0.0031501525422119154
1743758994.9040556,0.0031345261893104934
1743758994.9050317,0.0031287564590084306
1743758994.9060075,0.0031369302436030197
1743758994.9069834,0.0031746738959956837
1743758994.9079595,0.0031734718688494206
1743758994.9089358,0.0031827274778756473
1743758994.9099116,0.0032012386959281002
1743758994.9108875,0.003225038833424111
1743758994.9118636,0.0032423480243303007
1743758994.9128397,0.0032701148514089804
1743758994.9138155,0.0033052140440798655
1743758994.9147913,0.0033328606684439183
1743758994.9157677,0.0033584638466593237
1743758994.9167438,0.0033498092512062295
1743758994.9177196,0.003357742630371566
1743758994.9186954,0.0033563001977960504
1743758994.9196715,0.0033407940476092557
1743758994.9206476,0.0033052140440798655
1743758994.9216235,0.003259657215236491
1743758994.9225993,0.0032274428877166372
1743758994.9235756,0.0032036427502206265
1743758994.9245517,0.0031931851140481367
1743758994.9255276,0.0031960699791991685
1743758994.9265034,0.0032047245746522636
1743758994.9274795,0.0032211923465560693
1743758994.9284556,0.0032463147139129692
1743758994.9294314,0.003262662283102149
1743758994.9304075,0.0032723987029868802
1743758994.9313836,0.003295718029624386
1743758994.9323597,0.003308940328233281
1743758994.9333355,0.0033290141815758762
1743758994.9343114,0.003337909182458224
1743758994.9352875,0.0032948766106220017
1743758994.9362636,0.0032371793076013695
1743758994.9372396,0.0032181872786904114
1743758994.9382155,0.0031953487629114105
1743758994.9391916,0.0031756355177126948
1743758994.9401677,0.003165418286969457
1743758994.9411435,0.003192463897760379
1743758994.9421194,0.003213379170105358
1743758994.9430954,0.00326783099983108
1743758994.9440718,0.003328653573431997
1743758994.9450476,0.003350169859350108
1743758994.9460235,0.003321441410554418
1743758994.9469995,0.0032912705291832122
1743758994.9479756,0.0032660279591116854
1743758994.9489515,0.0032913907318978387
1743758994.9499273,0.003366036617680782
1743758994.9509037,0.0034439279767586365
1743758994.9518797,0.00344152392246611
1743758994.9528556,0.003404140878217325
1743758994.9538314,0.0033894761470329143
1743758994.9548075,0.0033544971570766556
1743758994.9557836,0.003333702087446303
1743758994.9567595,0.0033192777616911444
1743758994.9577355,0.0032864624205981596
1743758994.9587116,0.0032673501889725755
1743758994.9596877,0.00326686937811407
1743758994.9606636,0.0032820149201569855
1743758994.9616394,0.0033174747209717497
1743758994.9626155,0.003345962764338187
1743758994.9635916,0.003356540603225303
1743758994.9645677,0.0034034196619295667
1743758994.9655435,0.0034787867640002686
1743758994.9665196,0.0035196556869732166
1743758994.9674957,0.0035255456199899064
1743758994.9684715,0.0035016252797792687
1743758994.9694474,0.003466165478964505
1743758994.9704235,0.0034230127044136568
1743758994.9713998,0.0033978903370567564
1743758994.9723756,0.003394043850188714
1743758994.9733515,0.003357862833086192
1743758994.9743276,0.003345001142621177
1743758994.9753036,0.0033440395209041658
1743758994.9762795,0.0033582234412300716
1743758994.9772553,0.0033685608746879345
1743758994.9782317,0.0034006549994931618
1743758994.9792078,0.003462439194811089
1743758994.9801836,0.0034963363603357106
1743758994.9811594,0.003451019936921589
1743758994.9821355,0.0034206086501211304
1743758994.9831116,0.0034148389198190676
1743758994.9840875,0.003391399390466935
1743758994.9850633,0.003368320469258682
1743758994.9860396,0.003355699184222919
1743758994.9870157,0.003351972900069503
1743758994.9879916,0.003368200266544056
1743758994.9889674,0.0033748114158485033
1743758994.9899435,0.0033738497941314927
1743758994.9909196,0.0033885145253159036
1743758994.9918954,0.003435032975876289
1743758994.9928715,0.0034730170336982054
1743758994.9938476,0.0034785463585710157
1743758994.9948237,0.003492369670753042
1743758994.9957995,0.0034921292653237895
1743758994.9967754,0.0034682089251131527
1743758994.9977515,0.00343467236773241
1743758994.9987278,0.00341736317682622
1743758994.9997036,0.0034133964872435515
1743758995.0006795,0.003398611553344514
1743758995.0016556,0.0033601466846640924
1743758995.0026317,0.0033487274267745924
1743758995.0036075,0.0033920004040400666
1743758995.0045834,0.0034096702030901355
1743758995.0055594,0.003404140878217325
1743758995.0065358,0.003390077160606046
1743758995.0075116,0.003410030811234014
1743758995.0084875,0.0033947650664764724
1743758995.0094635,0.003374571010419251
1743758995.0104396,0.003387192295455014
1743758995.0114155,0.003427700610284083
1743758995.0123913,0.0034746998717029736
1743758995.0133677,0.0035279496742824327
1743758995.0143437,0.0035442972434716114
1743758995.0153196,0.0035411719728913275
1743758995.0162954,0.003522059741265743
1743758995.0172715,0.003486960548594858
1743758995.0182476,0.0034837150752999473
1743758995.0192235,0.003502707104210906
1743758995.0201995,0.003507034401937453
1743758995.0211756,0.0035168910245368112
1743758995.0221517,0.003508597037227595
1743758995.0231276,0.003499822239059874
1743758995.0241034,0.0034793877775734002
1743758995.0250795,0.0034667664925376366
1743758995.0260556,0.0034974181847673477
1743758995.0270317,0.0035180930516830744
1743758995.0280075,0.0035119627132371325
1743758995.0289836,0.0035055919693619372
1743758995.0299597,0.0034844362915877054
1743758995.0309355,0.0034795079802880263
1743758995.0319114,0.0034890039947435055
1743758995.0328875,0.0034815514264366736
1743758995.0338638,0.0034596745323746837
1743758995.0348396,0.0034511401396362155
1743758995.0358155,0.0034453704093341518
1743758995.0367916,0.003450539126063084
1743758995.0377676,0.0034916484544652844
1743758995.0387435,0.003544417446186238
1743758995.0397193,0.0035658135293897223
1743758995.0406957,0.0035510285954906858
1743758995.0416718,0.003560284204516912
1743758995.0426476,0.003561846839807054
1743758995.0436234,0.0035694196108285122
1743758995.0445995,0.003563649880526449
1743758995.0455756,0.0035539134606417167
1743758995.0465515,0.00354369622989848
1743758995.0475273,0.0035293921068579484
1743758995.0485036,0.003486960548594858
1743758995.0494797,0.0034625593975257155
1743758995.0504556,0.003456429059079773
1743758995.0514314,0.003461958383952584
1743758995.0524075,0.003457871491655289
1743758995.0533836,0.003451981558638599
1743758995.0543594,0.0034504189233484574
1743758995.0553355,0.003454866423789631
1743758995.0563116,0.0034618381812379574
1743758995.0572877,0.003498620211913611
1743758995.0582635,0.0035319163638651008
1743758995.0592394,0.003552350825351575
1743758995.0602155,0.003552110419922322
1743758995.0611918,0.0035308345394334637
1743758995.0621676,0.0035047505503595527
1743758995.0631435,0.0034720554119811943
1743758995.0641196,0.0034427259496123733
1743758995.0650957,0.0034301046645766092
1743758995.0660715,0.003427219799425578
1743758995.0670474,0.0034047418917904568
1743758995.0680234,0.003380941754294445
1743758995.0689998,0.0033614689145249816
1743758995.0699756,0.0033498092512062295
1743758995.0709515,0.0033558193869375453
1743758995.0719275,0.003375773037565514
1743758995.0729036,0.003416281352394583
1743758995.0738795,0.003462439194811089
1743758995.0748553,0.0035786752198547385
1743758995.0758317,0.003679405094711593
1743758995.0768077,0.003760301521655105
1743758995.0777836,0.00380814220207638
1743758995.0787594,0.003793597673606595
1743758995.0797355,0.0037047678674977462
1743758995.0807116,0.0036446665101845872
1743758995.0816875,0.003574107516698939
1743758995.0826635,0.0035023464960670264
1743758995.0836396,0.00342782081299871
1743758995.0846157,0.0033686810774025615
1743758995.0855916,0.0033234848567030655
1743758995.0865674,0.0033132676259598286
1743758995.0875435,0.003341996074755519
1743758995.0885196,0.003424575339703799
1743758995.0894957,0.0035242233901290163
1743758995.0904715,0.0035714630569771595
1743758995.0914476,0.003616899683105908
1743758995.0924237,0.0036626969173785347
1743758995.0933995,0.0036761596214166825
1743758995.0943754,0.00367002928297074
1743758995.0953515,0.003655845362644835
1743758995.0963278,0.0036289199545685396
1743758995.0973036,0.0035944217754707865
1743758995.0982795,0.003571703462406412
1743758995.0992556,0.0035487447439127855
1743758995.1002316,0.003552110419922322
1743758995.1012075,0.0035630488669533174
1743758995.1021833,0.0035656933266750962
1743758995.1031597,0.003602234951921497
1743758995.1041358,0.003626395697561387
1743758995.1051116,0.0036206259672593236
1743758995.1060874,0.0036197845482569394
1743758995.1070635,0.003627116913849145
1743758995.1080396,0.0036219481971202128
1743758995.1090155,0.0036176208993936657
1743758995.1099913,0.0035986288704827076
1743758995.1109676,0.0035831227202959125
1743758995.1119437,0.0035964652216194334
1743758995.1129196,0.003608485493082066
1743758995.1138954,0.0036207461699739496
1743758995.1148715,0.0036144956288133817
1743758995.1158476,0.0036004319112021023
1743758995.1168234,0.0035888924505979754
1743758995.1177995,0.003595022789043918
1743758995.1187756,0.0035991096813412127
1743758995.1197517,0.003586849004449328
1743758995.1207275,0.003570501435260149
1743758995.1217034,0.0035507881900614328
1743758995.1226795,0.0035254254172752794
1743758995.1236558,0.003513405145812648
1743758995.1246316,0.0035191748761147115
1743758995.1256075,0.0035307143367188376
1743758995.1265836,0.0035283102824263113
1743758995.1275597,0.0035471821086226433
1743758995.1285355,0.003609807722942955
1743758995.1295114,0.0036560857680740873
1743758995.1304874,0.0036800061082847245
1743758995.1314638,0.0036672646205343352
1743758995.1324396,0.0036542827273546926
1743758995.1334155,0.003656566578932593
1743758995.1343915,0.003650556443201277
1743758995.1353676,0.003608365290367439
1743758995.1363435,0.0035839641392982967
1743758995.1373193,0.003555355893217233
1743758995.1382957,0.0035349214317307587
1743758995.1392717,0.0035540336633563437
1743758995.1402476,0.0035819206931496494
1743758995.1412234,0.0035890126533126023
1743758995.1421995,0.0035892530587418544
1743758995.1431756,0.003602234951921497
1743758995.1441514,0.0036410604287457978
1743758995.1451275,0.0036908243526010934
1743758995.1461036,0.0036784434729945827
1743758995.1470797,0.003654763538213198
1743758995.1480556,0.003634809887585229
1743758995.1490314,0.003657888808793482
1743758995.1500075,0.0036800061082847245
1743758995.1509836,0.0036569271870764714
1743758995.1519597,0.0036453877264723453
1743758995.1529355,0.003652239281206045
1743758995.1539116,0.003663778741810172
1743758995.1548877,0.0036821697571479983
1743758995.1558635,0.00368505462229903
1743758995.1568394,0.003666182796102698
1743758995.1578155,0.003626035089417508
1743758995.1587918,0.0035998308976289708
1743758995.1597676,0.0036092067093698235
1743758995.1607435,0.0036488736051965083
1743758995.1617196,0.003664980768956435
1743758995.1626956,0.003647310969906366
1743758995.1636715,0.003643224077609071
1743758995.1646473,0.0036307229952879344
1743758995.1656237,0.003624352251412739
1743758995.1665998,0.003593580356468402
1743758995.1675756,0.003558360961082891
1743758995.1685514,0.003579516638857123
1743758995.1695275,0.0036077642767943074
1743758995.1705036,0.003621106778117829
1743758995.1714795,0.0036182219129667972
1743758995.1724553,0.003634809887585229
1743758995.1734316,0.003715345706384862
1743758995.1744077,0.0038127099052321796
1743758995.1753836,0.0038005694310549215
1743758995.1763594,0.003702604218634472
1743758995.1773355,0.0036259148867028817
1743758995.1783116,0.0035858873827323175
1743758995.1792874,0.0035830025175812865
1743758995.1802635,0.003586849004449328
1743758995.1812396,0.00361617846681815
1743758995.1822157,0.0036821697571479983
1743758995.1831915,0.003762465170518379
1743758995.1841674,0.003795761322469869
1743758995.1851435,0.0038033340934913273
1743758995.1861198,0.003814633148666201
1743758995.1870956,0.0038118684862297955
1743758995.1880715,0.003795520917040616
1743758995.1890476,0.003774966252839516
1743758995.1900237,0.0037612631433721153
1743758995.1909995,0.003767153076388805
1743758995.1919754,0.0037348185461543257
1743758995.1929514,0.003673274756265651
1743758995.1939278,0.00364719076719174
1743758995.1949036,0.0036310836034318134
1743758995.1958795,0.0035921379238928863
1743758995.1968555,0.003567977178252996
1743758995.1978316,0.0035706216379747754
1743758995.1988075,0.0035828823148666596
1743758995.1997833,0.0035771125845645967
1743758995.2007596,0.0036130531962378656
1743758995.2017357,0.0036542827273546926
1743758995.2027116,0.0036672646205343352
1743758995.2036874,0.0036962334747592776
1743758995.2046635,0.003731452870144789
1743758995.2056396,0.0037480408447632205
1743758995.2066154,0.0037552530076407995
1743758995.2075915,0.0037231588828355727
1743758995.2085676,0.003719432598682157
1743758995.2095437,0.003758017670077205
1743758995.2105196,0.0037943188898943527
1743758995.2114954,0.0038277352445604696
1743758995.2124715,0.0038522565983442384
1743758995.2134476,0.0038754557222671175
1743758995.2144237,0.0038410777458839905
1743758995.2153995,0.0037910734165994427
1743758995.2163756,0.003741549898173399
1743758995.2173517,0.0037209952339722994
1743758995.2183275,0.0037136628683800935
1743758995.2193034,0.003755733818499305
1743758995.2202795,0.0037665520628156735
1743758995.2212558,0.0037492428719094837
1743758995.2222316,0.003740107465597884
1743758995.2232075,0.0037306114511424047
1743758995.2241836,0.003725803342557352
1743758995.2251596,0.0037265245588451097
1743758995.2261355,0.003757897467362579
1743758995.2271113,0.0037677540899619367
1743758995.2280877,0.0037684753062496947
1743758995.2290637,0.0037752066582687686
1743758995.2300396,0.0037683551035350682
1743758995.2310154,0.0037616237515159944
1743758995.2319915,0.00375164692620201
1743758995.2329676,0.0037451559796121887
1743758995.2339435,0.003733015505434931
1743758995.2349193,0.0037302508429985256
1743758995.2358956,0.0037572964537894472
1743758995.2368717,0.003758017670077205
1743758995.2378476,0.0037426317226050363
1743758995.2388234,0.003736020573300589
1743758995.2397995,0.0037492428719094837
1743758995.2407756,0.0037597005080819736
1743758995.2417517,0.003774846050124889
1743758995.2427275,0.003780735983141579
1743758995.2437036,0.0037396266547393784
1743758995.2446797,0.003677481851277572
1743758995.2456555,0.0036445463074699608
1743758995.2466314,0.0036486331997672553
1743758995.2476075,0.0036666636069612036
1743758995.2485838,0.0036989981371956825
1743758995.2495596,0.003724360909981836
1743758995.2505355,0.0037404680737417625
1743758995.2515116,0.003754531791353042
1743758995.2524877,0.003764148008523147
1743758995.2534635,0.0037697975361105844
1743758995.2544394,0.0037731632121201213
1743758995.2554154,0.003757897467362579
1743758995.2563918,0.003728688207708383
1743758995.2573676,0.0037166679362457514
1743758995.2583435,0.0037931168627480896
1743758995.2593195,0.0038859133584396074
1743758995.2602956,0.003907910455216224
1743758995.2612715,0.0038621132209435967
1743758995.2622473,0.0038536990309197545
1743758995.2632236,0.003867762748531033
1743758995.2641997,0.0038728112625453386
1743758995.2651756,0.0038684839648187915
1743758995.2661514,0.0038439626110350223
1743758995.2671275,0.0038726910598307126
1743758995.2681036,0.0038738930869769757
1743758995.2690794,0.003857184909643917
1743758995.2700555,0.0038485303141908224
1743758995.2710316,0.003855862679783028
1743758995.2720077,0.0038303797042822485
1743758995.2729836,0.0038208836898267692
1743758995.2739594,0.003822566527831538
1743758995.2749355,0.003860550585653454
1743758995.2759116,0.003889639642593023
1743758995.2768877,0.003914521604520671
1743758995.2778635,0.00388026383085217
1743758995.2788396,0.0038859133584396074
1743758995.2798157,0.0039131993746597815
1743758995.2807915,0.0039015397113410285
1743758995.2817674,0.0038681233566749125
1743758995.2827435,0.0038399959214523538
1743758995.2837198,0.0038004492283402955
1743758995.2846956,0.0037616237515159944
1743758995.2856715,0.003727365977847494
1743758995.2866476,0.0037011617860589568
1743758995.2876236,0.003701281988773583
1743758995.2885995,0.003695632461186146
1743758995.2895753,0.0037041668539246147
1743758995.2905517,0.00373109226200091
1743758995.2915277,0.003740107465597884
1743758995.2925036,0.003773644022978626
1743758995.2934794,0.0037972037550453846
1743758995.2944555,0.0038410777458839905
1743758995.2954316,0.0038662001132408912
1743758995.2964075,0.0038768981548426337
1743758995.2973833,0.003892885115887934
1743758995.2983596,0.003895168967465834
1743758995.2993357,0.0038962507918974703
1743758995.3003116,0.00387930220913516
1743758995.3012874,0.0038555020716391493
1743758995.3022635,0.003856103085212281
1743758995.3032396,0.003889519439878397
1743758995.3042157,0.0038815860607130603
1743758995.3051915,0.00382184531154378
1743758995.3061676,0.0037802551722830743
1743758995.3071437,0.003758738886364963
1743758995.3081195,0.003758738886364963
1743758995.3090954,0.003750565101770373
1743758995.3100715,0.0037760480772711523
1743758995.3110478,0.003792275443745706
1743758995.3120236,0.0038576657205024226
1743758995.3129995,0.003925820659695545
1743758995.3139756,0.003957073365498388
1743758995.3149517,0.003967170393526998
1743758995.3159275,0.003959357217076288
1743758995.3169034,0.003905265995494445
1743758995.3178794,0.0038695657892504278
1743758995.3188558,0.0038179988246757374
1743758995.3198316,0.003774605644695637
1743758995.3208075,0.0037574166565040733
1743758995.3217835,0.003782298618431721
1743758995.3227596,0.003806699769500864
1743758995.3237355,0.0038103058509396533
1743758995.3247113,0.003818840243678122
1743758995.3256876,0.0038413181513132434
1743758995.3266637,0.0038774991684157652
1743758995.3276396,0.003907910455216224
1743758995.3286154,0.003977988637843367
1743758995.3295915,0.004008399924643825
1743758995.3305676,0.004026550534552399
1743758995.3315434,0.00402294445311361
1743758995.3325195,0.004000466545478488
1743758995.3334956,0.0038523768010588644
1743758995.3344717,0.00378398145643649
1743758995.3354475,0.003805377539639974
1743758995.3364234,0.003817397811102606
1743758995.3373995,0.0037859046998705106
1743758995.3383756,0.0037491226691948576
1743758995.3393517,0.0037577772646479528
1743758995.3403275,0.0038307403124261275
1743758995.3413036,0.003897092210899855
1743758995.3422797,0.00392077214568124
1743758995.3432555,0.0039591168116470355
1743758995.3442314,0.0040257091155500154
1743758995.3452075,0.0040038322214880255
1743758995.3461838,0.003979791678562761
1743758995.3471596,0.00399746147761283
1743758995.3481355,0.003999024112902973
1743758995.3491116,0.004003231207914894
1743758995.3500876,0.004036407157151757
1743758995.3510635,0.004090618581448227
1743758995.3520393,0.004102037839337727
1743758995.3530157,0.004083406418570647
1743758995.3539917,0.0040254687101207625
1743758995.3549676,0.0040184969526724365
1743758995.3559434,0.004027391953554784
1743758995.3569195,0.004019939385247952
1743758995.3578956,0.003986523030581835
1743758995.3588715,0.003946255121182019
1743758995.3598473,0.0038985346434753706
1743758995.3608236,0.003863074842660607
1743758995.3617997,0.00387930220913516
1743758995.3627756,0.003877378965701139
1743758995.3637514,0.0038811052498545547
1743758995.3647275,0.003910434712223376
1743758995.3657036,0.003951183432481698
1743758995.3666797,0.003971137083109667
1743758995.3676555,0.003960439041507924
1743758995.3686316,0.003933393430717003
1743758995.3696077,0.003900818495053271
1743758995.3705835,0.003907309441643092
1743758995.3715594,0.003952866270486467
1743758995.3725355,0.003951664243340204
1743758995.3735118,0.0039402449854507035
1743758995.3744876,0.003916444847954692
1743758995.3754635,0.003873772884262349
1743758995.3764396,0.0038611515992265856
1743758995.3774157,0.0038807446417106757
1743758995.3783915,0.003961520865939562
1743758995.3793674,0.004015371682092152
1743758995.3803434,0.003984118976289309
1743758995.3813198,0.004000947356336993
1743758995.3822956,0.004030036413276562
1743758995.3832715,0.00399517762603493
1743758995.3842475,0.003955630932922872
1743758995.3852236,0.003968372420673261
1743758995.3861995,0.003996860464039699
1743758995.3871753,0.003997341274898204
1743758995.3881516,0.0040145302630897675
1743758995.3891277,0.0040291949942741784
1743758995.3901036,0.0040448213471755996
1743758995.3910794,0.004048187023185137
1743758995.3920555,0.004037008170724889
1743758995.3930316,0.003999504923761478
1743758995.3940074,0.003968132015244009
1743758995.3949835,0.003922815591829887
1743758995.3959596,0.003876417343984128
1743758995.3969357,0.003880384033566797
1743758995.3979115,0.003914521604520671
1743758995.3988874,0.0039204115375373605
1743758995.3998635,0.0039474571483282825
1743758995.4008396,0.004020901006964963
1743758995.4018157,0.004064173984230437
1743758995.4027915,0.004129083450128649
1743758995.4037676,0.004194353524170739
1743758995.4047437,0.0042134657557963235
1743758995.4057195,0.004185097915144513
1743758995.4066954,0.004159134128785228
1743758995.4076715,0.004111053042934701
1743758995.4086478,0.0040816033778512525
1743758995.4096236,0.004086411486436305
1743758995.4105995,0.004080882161563495
1743758995.4115756,0.004046624387894994
1743758995.4125516,0.0040227040476843575
1743758995.4135275,0.00400335141062952
1743758995.4145033,0.004008399924643825
1743758995.4154797,0.004040974860307558
1743758995.4164557,0.004058163848499121
1743758995.4174316,0.004046864793324247
1743758995.4184074,0.004051192091050795
1743758995.4193835,0.004030637426849694
1743758995.4203596,0.004016453506523789
1743758995.4213355,0.004006236275780552
1743758995.4223113,0.003968252217958635
1743758995.4232876,0.003942168228884724
1743758995.4242637,0.0039131993746597815
1743758995.4252396,0.00388386991229096
1743758995.4262154,0.0038653586942385067
1743758995.4271915,0.0038683637621041646
1743758995.4281676,0.003925219646122413
1743758995.4291437,0.004010683776221726
1743758995.4301195,0.004056601213208979
1743758995.4310956,0.004070664930820258
1743758995.4320717,0.004099753987759827
1743758995.4330475,0.004141103721591281
1743758995.4340234,0.004112976286368722
1743758995.4349995,0.004047225401468126
1743758995.4359758,0.003983157354572299
1743758995.4369516,0.003933273228002377
1743758995.4379275,0.0039283449167026975
1743758995.4389036,0.0039616410686541875
1743758995.4398797,0.004062491146225668
1743758995.4408555,0.00414831588446886
1743758995.4418314,0.004151921965907649
1743758995.4428074,0.004160937169504623
1743758995.4437838,0.004189906023729565
1743758995.4447596,0.004206974809206503
1743758995.4457355,0.004197238389321771
1743758995.4467115,0.004171274602962486
1743758995.4476876,0.0041491573034712435
1743758995.4486635,0.004115620746090501
1743758995.4496393,0.004035205130005494
1743758995.4506156,0.003975824988980093
1743758995.4515917,0.003954909716635114
1743758995.4525676,0.003944211675033372
1743758995.4535434,0.003933513633431629
1743758995.4545195,0.003925219646122413
1743758995.4554956,0.003924738835263908
1743758995.4564714,0.003960198636078671
1743758995.4574475,0.004031238440422825
1743758995.4584236,0.004106725745208153
1743758995.4593997,0.004153003790339286
1743758995.4603755,0.0041310066935626695
1743758995.4613514,0.004093383243884632
1743758995.4623275,0.004027031345410904
1743758995.4633036,0.003934956066007145
1743758995.4642797,0.0039311095791391025
1743758995.4652555,0.003977267421555609
1743758995.4662316,0.00403893141415891
1743758995.4672077,0.004079319526273353
1743758995.4681835,0.0040629719570841735
1743758995.4691594,0.004023906074830621
1743758995.4701355,0.004000346342763862
1743758995.4711118,0.004015732290236031
1743758995.4720876,0.004077276080124706
1743758995.4730635,0.004096748919894169
1743758995.4740396,0.004061649727223285
1743758995.4750156,0.0040783579045563425
1743758995.4759915,0.0041463926410348385
1743758995.4769673,0.004206854606491876
1743758995.4779437,0.004233058798280414
1743758995.4789197,0.004243877042596782
1743758995.4798956,0.00424916596204034
1743758995.4808714,0.0042507285973304824
1743758995.4818475,0.004192670686165971
1743758995.4828236,0.0040962681090356634
1743758995.4837995,0.0040604477000770215
1743758995.4847753,0.004067058849381469
1743758995.4857516,0.004075112431261432
1743758995.4867277,0.004087733716297196
1743758995.4877036,0.0041007156094768375
1743758995.4886794,0.004126198584977617
1743758995.4896555,0.004131367301706548
1743758995.4906316,0.004131848112565054
1743758995.4916077,0.00409771054161118
1743758995.4925835,0.004054197158916453
1743758995.4935596,0.003999985734619983
1743758995.4945357,0.003987604855013473
1743758995.4955115,0.004010683776221726
1743758995.4964874,0.004037849589727273
1743758995.4974635,0.004051913307338552
1743758995.4984398,0.004103119663769364
1743758995.4994156,0.004140262302588896
1743758995.5003915,0.004122472300824201
1743758995.5013676,0.004104321690915627
1743758995.5023437,0.004133410747855196
1743758995.5033195,0.004221399134961661
1743758995.5042953,0.004271764072390088
1743758995.5052714,0.004268278193665925
1743758995.5062478,0.004244958867028419
1743758995.5072236,0.004255296300486283
1743758995.5081995,0.00425962359821283
1743758995.5091755,0.004217552648093619
1743758995.5101516,0.004188583793868676
1743758995.5111275,0.004157210885351207
1743758995.5121033,0.004091099392306732
1743758995.5130796,0.004031719251281331
1743758995.5140557,0.004009962559933967
1743758995.5150316,0.004039292022302789
1743758995.5160074,0.004091460000450611
1743758995.5169835,0.0040823245941390114
1743758995.5179596,0.004103480271913242
1743758995.5189354,0.004111053042934701
1743758995.5199115,0.0040900175678750955
1743758995.5208876,0.004047706212326631
1743758995.5218637,0.004013328235943504
1743758995.5228395,0.004019218168960194
1743758995.5238154,0.004034844521861615
1743758995.5247915,0.004076915471980826
1743758995.5257676,0.004157932101638965
1743758995.5267437,0.004196517173034013
1743758995.5277195,0.004140382505303523
1743758995.5286956,0.004090979189592106
1743758995.5296717,0.004092061014023742
1743758995.5306475,0.004122953111682706
1743758995.5316234,0.004159494736929107
1743758995.5325994,0.004185218117859139
1743758995.5335758,0.004195795956746255
1743758995.5345516,0.004153244195768538
1743758995.5355275,0.004153123993053912
