index,ECG
1742986067.8439636,0.0015664817770101758
1742986067.8449397,0.0015664817770101758
1742986067.8459156,0.0015664817770101758
1742986067.8468914,0.0015664817770101758
1742986067.8478677,0.0015664817770101758
1742986067.8488438,0.0015664817770101758
1742986067.8498197,0.0015664817770101758
1742986067.8507955,0.0015664817770101758
1742986067.8517716,0.001409737437137457
1742986067.8527477,0.0014135839240054992
1742986067.8537238,0.0014087758154204466
1742986067.8546996,0.0014106990588544678
1742986067.8556757,0.0014193536543075627
1742986067.8566518,0.001471281227026132
1742986067.8576276,0.0015760979941802811
1742986067.8586035,0.0015866758330673972
1742986067.8595796,0.0015501342078209964
1742986067.860556,0.0015443644775189334
1742986067.8615317,0.0015434028558019227
1742986067.8625076,0.0015539806946890387
1742986067.8634837,0.0015366715037828489
1742986067.8644598,0.0014837823093472688
1742986067.8654356,0.0014751277138941741
1742986067.8664114,0.0014635882532900476
1742986067.8673875,0.0014510871709689105
1742986067.8683639,0.0014895520396493323
1742986067.8693397,0.0015462877209529542
1742986067.8703156,0.00162706394518184
1742986067.8712916,0.0016328336754839034
1742986067.8722677,0.0015443644775189334
1742986067.8732436,0.0014866671744983007
1742986067.8742194,0.0014530104144029317
1742986067.8751957,0.001427046628043647
1742986067.8761718,0.0014578185229879843
1742986067.8771477,0.001570328263878218
1742986067.8781235,0.0015818677244823446
1742986067.8790996,0.0015953304285204921
1742986067.8800757,0.0015837909679163656
1742986067.8810515,0.0016155244845777134
1742986067.8820276,0.0016251407017478189
1742986067.8830037,0.0016164861062947242
1742986067.8839798,0.0016164861062947242
1742986067.8849556,0.00164437313608803
1742986067.8859315,0.0016280255668988505
1742986067.8869076,0.0016011001588225554
1742986067.8878837,0.0015876374547844076
1742986067.8888597,0.001582829346199355
1742986067.8898356,0.0015626352901421338
1742986067.8908117,0.001553019072972028
1742986067.8917878,0.0015674433987271864
1742986067.8927636,0.0015655201552931652
1742986067.8937395,0.0015885990765014183
1742986067.8947155,0.001578982859331313
1742986067.8956919,0.0015684050204441968
1742986067.8966677,0.0015501342078209964
1742986067.8976436,0.0015270552866127436
1742986067.8986197,0.0014914752830833533
1742986067.8995957,0.0014664731184410792
1742986067.9005716,0.0014510871709689105
1742986067.9015474,0.0014462790623838578
1742986067.9025238,0.0014405093320817945
1742986067.9034998,0.0015020531219704695
1742986067.9044757,0.0015414796123679015
1742986067.9054515,0.0015376331254998595
1742986067.9064276,0.0015203239345936697
1742986067.9074037,0.001481859065913248
1742986067.9083796,0.0014530104144029317
1742986067.9093554,0.0014443558189498366
1742986067.9103317,0.0014155071674395205
1742986067.9113078,0.0014482023058178788
1742986067.9122837,0.001504937987121501
1742986067.9132595,0.0015010915002534589
1742986067.9142356,0.001471281227026132
1742986067.9152117,0.0014068525719864256
1742986067.9161878,0.0014174304108735415
1742986067.9171636,0.001418392032590552
1742986067.9181397,0.0014251233846096258
1742986067.9191158,0.0014760893356111845
1742986067.9200916,0.0015982152936715238
1742986067.9210675,0.0016751450310323673
1742986067.9220436,0.0017107250345617575
1742986067.92302,0.0016664904355792722
1742986067.9239957,0.0016241790800308085
1742986067.9249716,0.001614562862860703
1742986067.9259477,0.0016001385371055448
1742986067.9269238,0.0016107163759926607
1742986067.9278996,0.0016068698891246187
1742986067.9288754,0.001582829346199355
1742986067.9298515,0.0015895606982184289
1742986067.9308279,0.0015693666421612072
1742986067.9318037,0.0015587888032740915
1742986067.9327796,0.001570328263878218
1742986067.9337556,0.0015972536719545134
1742986067.9347317,0.0016164861062947242
1742986067.9357076,0.001643411514371019
1742986067.9366834,0.0016482196229560722
1742986067.9376597,0.0016405266492199877
1742986067.9386358,0.0016491812446730826
1742986067.9396117,0.0016405266492199877
1742986067.9405875,0.0016405266492199877
1742986067.9415636,0.0016597590835601987
1742986067.9425397,0.0016578358401261775
1742986067.9435155,0.0016722601658813356
1742986067.9444916,0.0016616823269942195
1742986067.9454677,0.0016491812446730826
1742986067.9464438,0.0016645671921452514
1742986067.9474196,0.0016847612482024726
1742986067.9483955,0.0016722601658813356
1742986067.9493716,0.001667452057296283
1742986067.9503477,0.001690530978504536
1742986067.9513237,0.0016722601658813356
1742986067.9522996,0.0016703369224473144
1742986067.9532757,0.0016626439487112301
1742986067.9542518,0.001681876383051441
1742986067.9552276,0.0016847612482024726
1742986067.9562035,0.001690530978504536
1742986067.9571795,0.001704955304259694
1742986067.9581559,0.0017213028734488732
1742986067.9591317,0.0017328423340529997
1742986067.9601076,0.0017414969295060949
1742986067.9610837,0.0017491899032421791
1742986067.9620597,0.0017549596335442424
1742986067.9630356,0.0017549596335442424
1742986067.9640114,0.001764575850714348
1742986067.9649878,0.0017443817946571263
1742986067.9659638,0.0017059169259767048
1742986067.9669397,0.001692454221938557
1742986067.9679155,0.0016828380047684518
1742986067.9688916,0.001673221787598346
1742986067.9698677,0.0016664904355792722
1742986067.9708436,0.0016636055704282407
1742986067.9718196,0.0016549509749751456
1742986067.9727957,0.0016511044881071036
1742986067.9737718,0.00164437313608803
1742986067.9747477,0.0016347569189179242
1742986067.9757235,0.0016136012411436926
1742986067.9766996,0.0016328336754839034
1742986067.9776757,0.0016337952972009138
1742986067.9786518,0.0016299488103328715
1742986067.9796276,0.0016357185406349348
1742986067.9806037,0.0016616823269942195
1742986067.9815798,0.0016703369224473144
1742986067.9825556,0.0016780298961833987
1742986067.9835315,0.0016780298961833987
1742986067.9845076,0.0016837996264854622
1742986067.985484,0.001703032060825673
1742986067.9864597,0.0017328423340529997
1742986067.9874356,0.0017309190906189787
1742986067.9884117,0.0016712985441643252
1742986067.9893878,0.0016222558365967873
1742986067.9903636,0.0015664817770101758
1742986067.9913394,0.001488590417932322
1742986067.9923155,0.0014366628452137523
1742986067.9932919,0.0014126223022884888
1742986067.9942677,0.0014616650098560266
1742986067.9952435,0.0015510958295380072
1742986067.9962196,0.0015818677244823446
1742986067.9971957,0.0016049466456905977
1742986067.9981716,0.0016684136790132934
1742986067.9991474,0.0017501515249591898
1742986068.0001237,0.0017674607158653791
1742986068.0010998,0.0017376504426380526
1742986068.0020757,0.001711686656278768
1742986068.0030515,0.0017549596335442424
1742986068.0040276,0.0017924628805076536
1742986068.0050037,0.0018107336931308538
1742986068.0059795,0.0017866931502055902
1742986068.0069556,0.0017770769330354849
1742986068.0079317,0.0017616909855633163
1742986068.0089078,0.0017722688244504322
1742986068.0098836,0.0018107336931308538
1742986068.0108595,0.0018309277491880755
1742986068.0118356,0.0018155418017159067
1742986068.0128117,0.0018049639628287906
1742986068.0137877,0.001802079097677759
1742986068.0147636,0.0018097720714138432
1742986068.0157397,0.0017943861239416747
1742986068.0167158,0.0017780385547524955
1742986068.0176916,0.001745343416374137
1742986068.0186675,0.0017203412517318628
1742986068.0196435,0.0017270726037509367
1742986068.0206199,0.0017309190906189787
1742986068.0215957,0.0017193796300148522
1742986068.0225716,0.0016953390870895887
1742986068.0235476,0.0016886077350705148
1742986068.0245237,0.0016809147613344305
1742986068.0254996,0.001692454221938557
1742986068.0264754,0.0016886077350705148
1742986068.0274518,0.001692454221938557
1742986068.0284278,0.0017001471956746414
1742986068.0294037,0.001699185573957631
1742986068.0303795,0.0016982239522406203
1742986068.0313556,0.0017001471956746414
1742986068.0323317,0.001692454221938557
1742986068.0333076,0.0017078401694107256
1742986068.0342836,0.0017193796300148522
1742986068.0352597,0.0017213028734488732
1742986068.0362358,0.0017241877385999048
1742986068.0372117,0.0017338039557700106
1742986068.0381875,0.0017251493603169155
1742986068.0391636,0.0017328423340529997
1742986068.0401397,0.0017530363901102212
1742986068.0411158,0.0017684223375823902
1742986068.0420916,0.0017722688244504322
1742986068.0430677,0.0017732304461674428
1742986068.0440438,0.0017539980118272318
1742986068.0450196,0.0017386120643550632
1742986068.0459955,0.0017155331431468101
1742986068.0469716,0.0016914926002215465
1742986068.047948,0.0016943774653725783
1742986068.0489237,0.0017424585512231053
1742986068.0498996,0.001789578015356622
1742986068.0508757,0.0018116953148478645
1742986068.0518517,0.0017972709890927063
1742986068.0528276,0.0017886163936396114
1742986068.0538034,0.0017972709890927063
1742986068.0547795,0.0018097720714138432
1742986068.0557559,0.0017991942325267273
1742986068.0567317,0.0017655374724313583
1742986068.0577075,0.0017164947648638205
1742986068.0586836,0.0016837996264854622
1742986068.0596597,0.0017088017911277363
1742986068.0606356,0.0016943774653725783
1742986068.0616114,0.001704955304259694
1742986068.0625877,0.001740535307789084
1742986068.0635638,0.0017626526072803265
1742986068.0645397,0.001770345581016411
1742986068.0655155,0.0017732304461674428
1742986068.0664916,0.0017732304461674428
1742986068.0674677,0.0017559212552612528
1742986068.0684435,0.0017847699067715694
1742986068.0694196,0.001819388288583949
1742986068.0703957,0.0018684309961514865
1742986068.0713718,0.00190978072998294
1742986068.0723476,0.0018665077527174655
1742986068.0733235,0.0018588147789813812
1742986068.0742996,0.0018713158613025182
1742986068.0752757,0.0018934331607937608
1742986068.0762517,0.0018713158613025182
1742986068.0772276,0.0018626612658494233
1742986068.0782037,0.001842467209792202
1742986068.0791798,0.001819388288583949
1742986068.0801556,0.0018116953148478645
1742986068.0811315,0.0018088104496968328
1742986068.0821075,0.0018030407193947693
1742986068.0830839,0.0018280428840370436
1742986068.0840597,0.0018347742360561175
1742986068.0850356,0.001842467209792202
1742986068.0860116,0.001854968292113339
1742986068.0869877,0.0018520834269623073
1742986068.0879636,0.0018491985618112755
1742986068.0889394,0.001846313696660244
1742986068.0899158,0.0018309277491880755
1742986068.0908918,0.0018309277491880755
1742986068.0918677,0.001833812614339107
1742986068.0928435,0.001837659101207149
1742986068.0938196,0.0018357358577731281
1742986068.0947957,0.001842467209792202
1742986068.0957716,0.0018453520749432334
1742986068.0967476,0.001842467209792202
1742986068.0977237,0.001831889370905086
1742986068.0986998,0.0018097720714138432
1742986068.0996757,0.001787654771922601
1742986068.1006515,0.0017559212552612528
1742986068.1016276,0.0017511131466762002
1742986068.1026037,0.001763614228997337
1742986068.1035798,0.001780923419903527
1742986068.1045556,0.0018088104496968328
1742986068.1055317,0.0018280428840370436
1742986068.1065078,0.00185689153554736
1742986068.1074836,0.0018934331607937608
1742986068.1084595,0.0019078574865489188
1742986068.1094356,0.0019001645128128345
1742986068.110412,0.0018934331607937608
1742986068.1113877,0.0018876634304916973
1742986068.1123636,0.0018886250522087077
1742986068.1133397,0.0018847785653406657
1742986068.1143157,0.0018915099173597396
1742986068.1152916,0.001901126134529845
1742986068.1162674,0.0019030493779638661
1742986068.1172438,0.0018886250522087077
1742986068.1182199,0.0018511218052452967
1742986068.1191957,0.0018213115320179698
1742986068.1201715,0.0018136185582818855
1742986068.1211476,0.0018040023411117802
1742986068.1221237,0.0017982326108097167
1742986068.1230996,0.0017991942325267273
1742986068.1240754,0.0018299661274710647
1742986068.1250517,0.0018511218052452967
1742986068.1260278,0.001865546131000455
1742986068.1270037,0.0018453520749432334
1742986068.1279795,0.0018309277491880755
1742986068.1289556,0.0018078488279798224
1742986068.1299317,0.0018165034234329171
1742986068.1309075,0.001802079097677759
1742986068.1318836,0.0017886163936396114
1742986068.1328597,0.001789578015356622
1742986068.1338358,0.0017915012587906432
1742986068.1348116,0.0017818850416205375
1742986068.1357875,0.001764575850714348
1742986068.1367636,0.001793424502224664
1742986068.1377397,0.0018261196406030224
1742986068.1387157,0.0018876634304916973
1742986068.1396916,0.0019290131643231508
1742986068.1406677,0.0019386293814932561
1742986068.1416438,0.0019213201905870665
1742986068.1426196,0.0019357445163422247
1742986068.1435955,0.0019261282991721192
1742986068.1445715,0.0019299747860401612
1742986068.1455479,0.0019309364077571718
1742986068.1465237,0.0019174737037190243
1742986068.1474996,0.0018982412693788135
1742986068.1484756,0.0018943947825107712
1742986068.1494517,0.001878047213321592
1742986068.1504276,0.0018818937001896343
1742986068.1514034,0.0018472753183772547
1742986068.1523798,0.0018434288315092124
1742986068.1533558,0.0019088191082659294
1742986068.1543317,0.0019770942501736778
1742986068.1553075,0.001987672089060794
1742986068.1562836,0.0019569001941164565
1742986068.1572597,0.0019309364077571718
1742986068.1582355,0.0019078574865489188
1742986068.1592116,0.0019059342431148978
1742986068.1601877,0.0019040109996808765
1742986068.1611638,0.00189247153907675
1742986068.1621397,0.0019001645128128345
1742986068.1631155,0.0018963180259447922
1742986068.1640916,0.0018857401870576765
1742986068.1650677,0.0018415055880751912
1742986068.1660438,0.0018068872062628116
1742986068.1670196,0.0018097720714138432
1742986068.1679957,0.001825158018886012
1742986068.1689718,0.0018222731537349804
1742986068.1699476,0.001867469374434476
1742986068.1709235,0.0019251666774551086
1742986068.1718996,0.0019588234375504778
1742986068.172876,0.001964593167852541
1742986068.1738517,0.00196266992441852
1742986068.1748276,0.0019838256021927517
1742986068.1758037,0.0019809407370417202
1742986068.1767797,0.0019799791153247096
1742986068.1777556,0.0019972883062308994
1742986068.1787314,0.002039599661779363
1742986068.1797078,0.0020434461486474056
1742986068.1806839,0.0020434461486474056
1742986068.1816597,0.0020559472309685423
1742986068.1826355,0.002046331013798437
1742986068.1836116,0.002038638040062353
1742986068.1845877,0.0020184439840051313
1742986068.1855636,0.0020117126319860574
1742986068.1865394,0.0020049812799669835
1742986068.1875157,0.0020059429016839945
1742986068.1884918,0.002023252092590184
1742986068.1894677,0.002040561283496374
1742986068.1904435,0.0020376764183453423
1742986068.1914196,0.0020501775006664794
1742986068.1923957,0.002061716961270606
1742986068.1933715,0.0020742180435917427
1742986068.1943476,0.002081911017327827
1742986068.1953237,0.0020876807476298905
1742986068.1962998,0.0021040283168190697
1742986068.1972756,0.0021242223728762913
1742986068.1982515,0.002113644533989175
1742986068.1992276,0.0020972969647999958
1742986068.2002037,0.002092488856214943
1742986068.2011797,0.0020876807476298905
1742986068.2021556,0.002090565612780922
1742986068.2031317,0.002082872639044838
1742986068.2041078,0.002088642369346901
1742986068.2050836,0.0021049899385360803
1742986068.2060595,0.002143454807216502
1742986068.2070355,0.002168456971858776
1742986068.2080119,0.002168456971858776
1742986068.2089877,0.0021540326461036183
1742986068.2099636,0.0021386466986314493
1742986068.2109396,0.0021213375077252595
1742986068.2119157,0.0021338385900463966
1742986068.2128916,0.0021424931854994917
1742986068.2138674,0.0021540326461036183
1742986068.2148438,0.0021415315637824807
1742986068.2158198,0.0021011434516680382
1742986068.2167957,0.002008827766835026
1742986068.2177715,0.0019309364077571718
1742986068.2187476,0.0018818937001896343
1742986068.2197237,0.0018818937001896343
1742986068.2206995,0.001878047213321592
1742986068.2216756,0.0019482455986633616
1742986068.2226517,0.0021107596688381435
1742986068.2236278,0.0022675040087108624
1742986068.2246037,0.0023598196935438747
1742986068.2255795,0.0022838515779000416
1742986068.2265556,0.0022001904885201244
1742986068.2275317,0.002116529399140207
1742986068.2285078,0.0020771029087427745
1742986068.2294836,0.0020751796653087533
1742986068.2304597,0.0020521007441005007
1742986068.2314358,0.002048254257232458
1742986068.2324116,0.0020203672274391525
1742986068.2333875,0.0019780558718906884
1742986068.2343636,0.0019261282991721192
1742986068.2353399,0.0019030493779638661
1742986068.2363157,0.0019145888385679927
1742986068.2372916,0.001915550460285003
1742986068.2382677,0.0019569001941164565
1742986068.2392437,0.0019780558718906884
1742986068.2402196,0.0020280602011752366
1742986068.2411954,0.0020665250698556586
1742986068.2421718,0.0020944120996489644
1742986068.2431479,0.0020790261521767953
1742986068.2441237,0.0020646018264216374
1742986068.2450995,0.0020415229052133843
1742986068.2460756,0.002017482362288121
1742986068.2470517,0.0020049812799669835
1742986068.2480276,0.002012674253703068
1742986068.2490034,0.0020270985794582264
1742986068.2499797,0.0020511391223834896
1742986068.2509558,0.002058832096119574
1742986068.2519317,0.002065563448138648
1742986068.2529075,0.0020809493956108166
1742986068.2538836,0.0020934504779319537
1742986068.2548597,0.0021213375077252595
1742986068.2558355,0.0021299921031783546
1742986068.2568116,0.0021213375077252595
1742986068.2577877,0.0021232607511592807
1742986068.2587638,0.0021405699420654705
1742986068.2597396,0.0021569175112546497
1742986068.2607155,0.002187689406198987
1742986068.2616916,0.0021886510279159983
1742986068.262668,0.0021674953501417656
1742986068.2636437,0.002113644533989175
1742986068.2646196,0.0020742180435917427
1742986068.2655957,0.002010751010269047
1742986068.2665718,0.0019530537072484143
1742986068.2675476,0.0019405526249272774
1742986068.2685235,0.001916512082002014
1742986068.2694995,0.0019270899208891296
1742986068.2704759,0.0019530537072484143
1742986068.2714517,0.0019694012764375937
1742986068.2724276,0.0019770942501736778
1742986068.2734036,0.0019761326284566676
1742986068.2743797,0.0019819023587587304
1742986068.2753556,0.001987672089060794
1742986068.2763314,0.0019828639804757415
1742986068.2773077,0.0019780558718906884
1742986068.2782838,0.0019569001941164565
1742986068.2792597,0.0019415142466442878
1742986068.2802355,0.00190978072998294
1742986068.2812116,0.0019049726213978874
1742986068.2821877,0.0018665077527174655
1742986068.2831635,0.0018366974794901385
1742986068.2841396,0.0018405439663581808
1742986068.2851157,0.0018241963971690016
1742986068.2860918,0.001831889370905086
1742986068.2870677,0.001831889370905086
1742986068.2880435,0.001848236940094265
1742986068.2890196,0.0018636228875664339
1742986068.2899957,0.0018511218052452967
1742986068.2909718,0.0018068872062628116
1742986068.2919476,0.0017838082850545587
1742986068.2929237,0.0018059255845458012
1742986068.2938998,0.001846313696660244
1742986068.2948756,0.0018982412693788135
1742986068.2958515,0.0020222904708731737
1742986068.2968276,0.0020540239875345215
1742986068.2978039,0.0020347915531943104
1742986068.2987797,0.0019761326284566676
1742986068.2997556,0.0018982412693788135
1742986068.3007317,0.0018915099173597396
1742986068.3017077,0.0019386293814932561
1742986068.3026836,0.0019636315461355304
1742986068.3036594,0.001968439654720583
1742986068.3046358,0.0019674780330035725
1742986068.3056118,0.0018972796476618029
1742986068.3065877,0.0018472753183772547
1742986068.3075635,0.0018405439663581808
1742986068.3085396,0.0018165034234329171
1742986068.3095157,0.001793424502224664
1742986068.3104916,0.0017482282815251685
1742986068.3114674,0.0017616909855633163
1742986068.3124437,0.0017847699067715694
1742986068.3134198,0.0018261196406030224
1742986068.3143957,0.0018540066703963286
1742986068.3153715,0.0018665077527174655
1742986068.3163476,0.0018770855916045816
1742986068.3173237,0.0018895866739257186
1742986068.3182995,0.0019126655951339716
1742986068.3192756,0.0019174737037190243
1742986068.3202517,0.0019290131643231508
1742986068.3212278,0.0019405526249272774
1742986068.3222036,0.0019405526249272774
1742986068.3231795,0.001932859651191193
1742986068.3241556,0.0019251666774551086
1742986068.325132,0.0019174737037190243
1742986068.3261077,0.001920358568870056
1742986068.3270836,0.0019088191082659294
1742986068.3280597,0.0018982412693788135
1742986068.3290358,0.0018828553219066447
1742986068.3300116,0.0018443904532262228
1742986068.3309875,0.0018386207229241598
1742986068.3319635,0.0018290045057540543
1742986068.3329399,0.001831889370905086
1742986068.3339157,0.00185689153554736
1742986068.3348916,0.0018982412693788135
1742986068.3358676,0.001957861815833467
1742986068.3368437,0.002008827766835026
1742986068.3378196,0.0020261369577412158
1742986068.3387954,0.002023252092590184
1742986068.3397717,0.002019405605722142
1742986068.3407478,0.0020145974971370892
1742986068.3417237,0.0020155591188541
1742986068.3426995,0.001968439654720583
1742986068.3436756,0.0019318980294741825
1742986068.3446517,0.0019261282991721192
1742986068.3456275,0.0019232434340210873
1742986068.3466036,0.0019415142466442878
1742986068.3475797,0.001920358568870056
1742986068.3485558,0.0018943947825107712
1742986068.3495317,0.00189247153907675
1742986068.3505075,0.0019117039734169608
1742986068.3514836,0.0019193969471530453
1742986068.3524597,0.0019184353254360347
1742986068.3534358,0.0019290131643231508
1742986068.3544116,0.0019424758683612984
1742986068.3553877,0.0019049726213978874
1742986068.3563638,0.00189247153907675
1742986068.3573396,0.0019145888385679927
1742986068.3583155,0.0019338212729082035
1742986068.3592916,0.001971324519871615
1742986068.3602679,0.00196266992441852
1742986068.3612437,0.0019540153289654247
1742986068.3622196,0.001961708302701509
1742986068.3631957,0.0019338212729082035
1742986068.3641717,0.0019020877562468555
1742986068.3651476,0.0018934331607937608
1742986068.3661234,0.001878047213321592
1742986068.3670998,0.0018895866739257186
1742986068.3680758,0.001915550460285003
1742986068.3690517,0.0019376677597762457
1742986068.3700275,0.0019655547895695512
1742986068.3710036,0.0020011347930989415
1742986068.3719797,0.00201652074057111
1742986068.3729556,0.002000173171381931
1742986068.3739314,0.001968439654720583
1742986068.3749077,0.0019261282991721192
1742986068.3758838,0.0018972796476618029
1742986068.3768597,0.0018559299138303494
1742986068.3778355,0.0018540066703963286
1742986068.3788116,0.001860738022415402
1742986068.3797877,0.0018578531572643706
1742986068.3807635,0.0018559299138303494
1742986068.3817396,0.001833812614339107
1742986068.3827157,0.0018443904532262228
1742986068.3836918,0.0018540066703963286
1742986068.3846676,0.0018636228875664339
1742986068.3856435,0.0018703542395855078
1742986068.3866196,0.0018693926178684971
1742986068.387596,0.0018722774830195286
1742986068.3885717,0.0018684309961514865
1742986068.3895476,0.001865546131000455
1742986068.3905237,0.0018578531572643706
1742986068.3914998,0.001848236940094265
1742986068.3924756,0.001819388288583949
1742986068.3934515,0.0018030407193947693
1742986068.3944275,0.0018116953148478645
1742986068.3954039,0.0018088104496968328
1742986068.3963797,0.0018155418017159067
1742986068.3973556,0.0018068872062628116
1742986068.3983316,0.0017991942325267273
1742986068.3993077,0.0017838082850545587
1742986068.4002836,0.0017684223375823902
1742986068.4012594,0.001766499094148369
1742986068.4022357,0.0017539980118272318
1742986068.4032118,0.001740535307789084
1742986068.4041877,0.0017434201729401159
1742986068.4051635,0.0017559212552612528
1742986068.4061396,0.0017818850416205375
1742986068.4071157,0.001796309367375696
1742986068.4080915,0.0018040023411117802
1742986068.4090676,0.0018165034234329171
1742986068.4100437,0.001800155854243738
1742986068.4110198,0.0017866931502055902
1742986068.4119956,0.0017741920678844532
1742986068.4129715,0.0017780385547524955
1742986068.4139476,0.001763614228997337
1742986068.4149237,0.0017578444986952738
1742986068.4158998,0.001747266659808158
1742986068.4168756,0.001734765577487021
1742986068.4178517,0.001726110982033926
1742986068.4188278,0.001717456386580831
1742986068.4198036,0.0017126482779957783
1742986068.4207795,0.0017155331431468101
1742986068.4217556,0.0017376504426380526
1742986068.4227319,0.0017164947648638205
1742986068.4237077,0.001717456386580831
1742986068.4246836,0.0017424585512231053
1742986068.4256597,0.001740535307789084
1742986068.4266357,0.0017251493603169155
1742986068.4276116,0.0017011088173916518
1742986068.4285874,0.0016934158436555675
1742986068.4295638,0.0017011088173916518
1742986068.4305398,0.0017203412517318628
1742986068.4315157,0.0017357271992040314
1742986068.4324915,0.0017414969295060949
1742986068.4334676,0.0017530363901102212
1742986068.4344437,0.0017463050380911475
1742986068.4354196,0.0017338039557700106
1742986068.4363954,0.001713609899712789
1742986068.4373717,0.0017213028734488732
1742986068.4383478,0.0017088017911277363
1742986068.4393237,0.0016914926002215465
1742986068.4402995,0.0016357185406349348
1742986068.4412756,0.0015876374547844076
1742986068.4422517,0.0016030234022565764
1742986068.4432275,0.001612639619426682
1742986068.4442036,0.0016222558365967873
1742986068.4451797,0.001650142866390093
1742986068.4461558,0.0016712985441643252
1742986068.4471316,0.001699185573957631
1742986068.4481075,0.0017338039557700106
1742986068.4490836,0.0017674607158653791
1742986068.45006,0.0017559212552612528
1742986068.4510357,0.0017328423340529997
1742986068.4520116,0.0016934158436555675
1742986068.4529877,0.001681876383051441
1742986068.4539638,0.0016943774653725783
1742986068.4549396,0.0016963007088065991
1742986068.4559155,0.0017011088173916518
1742986068.4568915,0.001711686656278768
1742986068.4578679,0.001728034225467947
1742986068.4588437,0.0017213028734488732
1742986068.4598196,0.0017338039557700106
1742986068.4607956,0.0017107250345617575
1742986068.4617717,0.0017088017911277363
1742986068.4627476,0.0017213028734488732
1742986068.4637234,0.001717456386580831
1742986068.4646997,0.0016982239522406203
1742986068.4656758,0.0016963007088065991
1742986068.4666517,0.0016943774653725783
1742986068.4676275,0.0016741834093153567
1742986068.4686036,0.001676106652749378
1742986068.4695797,0.001681876383051441
1742986068.4705555,0.0016741834093153567
1742986068.4715316,0.0016741834093153567
1742986068.4725077,0.0016751450310323673
1742986068.4734838,0.0016626439487112301
1742986068.4744596,0.0016539893532581352
1742986068.4754355,0.0016568742184091669
1742986068.4764116,0.0016626439487112301
1742986068.4773877,0.001660720705277209
1742986068.4783638,0.001669375300730304
1742986068.4793396,0.0016636055704282407
1742986068.4803157,0.0016318720537668926
1742986068.4812918,0.0016424498926540087
1742986068.4822676,0.0016472580012390613
1742986068.4832435,0.0016568742184091669
1742986068.4842196,0.0016511044881071036
1742986068.4851959,0.001650142866390093
1742986068.4861717,0.0016530277315411248
1742986068.4871476,0.0016578358401261775
1742986068.4881237,0.0016539893532581352
1742986068.4890997,0.0016424498926540087
1742986068.4900756,0.0016453347578050403
1742986068.4910514,0.0016491812446730826
1742986068.4920278,0.0016453347578050403
1742986068.4930038,0.0016366801623519456
1742986068.4939797,0.0016261023234648295
1742986068.4949555,0.0016309104320498822
1742986068.4959316,0.0016232174583137979
1742986068.4969077,0.0016241790800308085
1742986068.4978836,0.0016328336754839034
1742986068.4988594,0.0016155244845777134
1742986068.4998357,0.0016174477280117346
1742986068.5008118,0.001612639619426682
1742986068.5017877,0.001643411514371019
1742986068.5027635,0.0016520661098241142
1742986068.5037396,0.001667452057296283
1742986068.5047157,0.0016559125966921565
1742986068.5056918,0.0016578358401261775
1742986068.5066676,0.0016366801623519456
1742986068.5076437,0.0016184093497287452
1742986068.5086198,0.0015943688068034815
1742986068.5095956,0.0016136012411436926
1742986068.5105715,0.0016366801623519456
1742986068.5115476,0.0016943774653725783
1742986068.512524,0.0017155331431468101
1742986068.5134997,0.0017395736860720736
1742986068.5144756,0.0017482282815251685
1742986068.5154517,0.0017568828769782636
1742986068.5164278,0.0017309190906189787
1742986068.5174036,0.0016934158436555675
1742986068.5183794,0.0016491812446730826
1742986068.5193555,0.0016482196229560722
1742986068.5203319,0.00164437313608803
1742986068.5213077,0.001650142866390093
1742986068.5222836,0.0016578358401261775
1742986068.5232596,0.0016866844916364938
1742986068.5242357,0.0017338039557700106
1742986068.5252116,0.0017559212552612528
1742986068.5261874,0.0017318807123359893
1742986068.5271637,0.001690530978504536
1742986068.5281398,0.0016789915179004095
1742986068.5291157,0.0016703369224473144
1742986068.5300915,0.001660720705277209
1742986068.5310676,0.0016568742184091669
1742986068.5320437,0.0016770682744663883
1742986068.5330195,0.0016568742184091669
1742986068.5339956,0.0016520661098241142
1742986068.5349717,0.00164437313608803
1742986068.5359478,0.0016491812446730826
1742986068.5369236,0.0016511044881071036
1742986068.5378995,0.0016453347578050403
1742986068.5388756,0.0016405266492199877
1742986068.5398517,0.0016472580012390613
1742986068.5408278,0.0016453347578050403
1742986068.5418036,0.001646296379522051
1742986068.5427797,0.0016386034057859664
1742986068.5437558,0.0016280255668988505
1742986068.5447316,0.0016347569189179242
1742986068.5457075,0.00162706394518184
1742986068.5466835,0.0016386034057859664
1742986068.5476599,0.0016366801623519456
1742986068.5486357,0.001643411514371019
1742986068.5496116,0.0016405266492199877
1742986068.5505877,0.0016318720537668926
1742986068.5515637,0.0016549509749751456
1742986068.5525396,0.0016472580012390613
1742986068.5535154,0.0016328336754839034
1742986068.5544918,0.0016309104320498822
1742986068.5554678,0.001612639619426682
1742986068.5564437,0.0016174477280117346
1742986068.5574195,0.00162706394518184
1742986068.5583956,0.0016164861062947242
1742986068.5593717,0.0016011001588225554
1742986068.5603476,0.0016011001588225554
1742986068.5613234,0.00160879313255864
1742986068.5622997,0.0016289871886158611
1742986068.5632758,0.0016222558365967873
1742986068.5642517,0.0016155244845777134
1742986068.5652275,0.001612639619426682
1742986068.5662036,0.001582829346199355
1742986068.5671797,0.0015857142113503868
1742986068.5681558,0.0015962920502375025
1742986068.5691316,0.0016184093497287452
1742986068.5701077,0.0016212942148797769
1742986068.5710838,0.00162706394518184
1742986068.5720596,0.0016309104320498822
1742986068.5730355,0.0016222558365967873
1742986068.5740116,0.0015982152936715238
1742986068.574988,0.0015962920502375025
1742986068.5759637,0.0015684050204441968
1742986068.5769396,0.001547249342669965
1742986068.5779157,0.0015395563689338807
1742986068.5788918,0.0015405179906508911
1742986068.5798676,0.0015741747507462603
1742986068.5808434,0.001578982859331313
1742986068.5818195,0.0015943688068034815
1742986068.5827959,0.0016155244845777134
1742986068.5837717,0.0016097547542756503
1742986068.5847476,0.0016136012411436926
1742986068.5857236,0.0016405266492199877
1742986068.5866997,0.0016559125966921565
1742986068.5876756,0.0016549509749751456
1742986068.5886514,0.0016261023234648295
1742986068.5896277,0.0016068698891246187
1742986068.5906038,0.0015895606982184289
1742986068.5915797,0.0015655201552931652
1742986068.5925555,0.0015751363724632707
1742986068.5935316,0.001607831510841629
1742986068.5945077,0.0016203325931627662
1742986068.5954835,0.0016337952972009138
1742986068.5964596,0.0016520661098241142
1742986068.5974357,0.0016193709714457556
1742986068.5984118,0.0016299488103328715
1742986068.5993876,0.0016203325931627662
1742986068.6003635,0.0016164861062947242
1742986068.6013396,0.0016174477280117346
1742986068.6023157,0.0016049466456905977
1742986068.6032917,0.0015972536719545134
1742986068.6042676,0.001614562862860703
1742986068.6052437,0.0016222558365967873
1742986068.6062198,0.0016136012411436926
1742986068.6071956,0.0016116779977096713
1742986068.6081715,0.0016453347578050403
1742986068.6091475,0.0016645671921452514
1742986068.6101239,0.0016645671921452514
1742986068.6110997,0.0016684136790132934
1742986068.6120756,0.0016626439487112301
1742986068.6130517,0.0016472580012390613
1742986068.6140277,0.0016722601658813356
1742986068.6150036,0.0016414882709369983
1742986068.6159794,0.001602061780539566
1742986068.6169558,0.0015780212376143023
1742986068.6179318,0.0015732131290292495
1742986068.6189077,0.0015837909679163656
1742986068.6198835,0.0016049466456905977
1742986068.6208596,0.0016174477280117346
1742986068.6218357,0.0016203325931627662
1742986068.6228116,0.0016309104320498822
1742986068.6237874,0.001643411514371019
1742986068.6247637,0.0016280255668988505
1742986068.6257398,0.0016116779977096713
1742986068.6267157,0.0015962920502375025
1742986068.6276915,0.0016164861062947242
1742986068.6286676,0.0016241790800308085
1742986068.6296437,0.0016155244845777134
1742986068.6306198,0.00160879313255864
1742986068.6315956,0.0016136012411436926
1742986068.6325717,0.0015972536719545134
1742986068.6335478,0.0015857142113503868
1742986068.6345236,0.0015799444810483234
1742986068.6354995,0.0015866758330673972
1742986068.6364756,0.0015751363724632707
1742986068.637452,0.0015895606982184289
1742986068.6384277,0.0016184093497287452
1742986068.6394036,0.001612639619426682
1742986068.6403797,0.0016155244845777134
1742986068.6413558,0.0016328336754839034
1742986068.6423316,0.0016482196229560722
1742986068.6433074,0.0016347569189179242
1742986068.6442835,0.0016068698891246187
1742986068.6452599,0.0015895606982184289
1742986068.6462357,0.0015626352901421338
1742986068.6472116,0.0015587888032740915
1742986068.6481876,0.0015549423164060493
1742986068.6491637,0.0015328250169148068
1742986068.6501396,0.0015501342078209964
1742986068.6511154,0.0015510958295380072
1742986068.6520917,0.00153859474721687
1742986068.6530678,0.0015462877209529542
1742986068.6540437,0.0015712898855952285
1742986068.6550195,0.0015866758330673972
1742986068.6559956,0.0016116779977096713
1742986068.6569717,0.001584752589633376
1742986068.6579475,0.0015626352901421338
1742986068.6589236,0.0015462877209529542
1742986068.6598997,0.0015453260992359438
1742986068.6608758,0.0015482109643869754
1742986068.6618516,0.0015991769153885342
1742986068.6628275,0.0016597590835601987
1742986068.6638036,0.0016972623305236097
1742986068.6647797,0.0017328423340529997
1742986068.6657557,0.0017097634128447469
1742986068.6667316,0.0016645671921452514
1742986068.6677077,0.0016280255668988505
1742986068.6686838,0.0016174477280117346
1742986068.6696596,0.0016174477280117346
1742986068.6706355,0.0016347569189179242
1742986068.6716115,0.0016251407017478189
1742986068.6725879,0.0016193709714457556
1742986068.6735637,0.0016212942148797769
1742986068.6745396,0.0016193709714457556
1742986068.6755157,0.0016395650275029768
1742986068.6764917,0.0016684136790132934
1742986068.6774676,0.001650142866390093
1742986068.6784434,0.00162706394518184
1742986068.6794198,0.0016097547542756503
1742986068.6803958,0.0016203325931627662
1742986068.6813717,0.0016232174583137979
1742986068.6823475,0.0016203325931627662
1742986068.6833236,0.00160879313255864
1742986068.6842997,0.0016261023234648295
1742986068.6852756,0.0016337952972009138
1742986068.6862514,0.0016251407017478189
1742986068.6872277,0.0016174477280117346
1742986068.6882038,0.0016193709714457556
1742986068.6891797,0.0016174477280117346
1742986068.6901555,0.0016212942148797769
1742986068.6911316,0.0016193709714457556
1742986068.6921077,0.0016193709714457556
1742986068.6930838,0.0016203325931627662
1742986068.6940596,0.001612639619426682
1742986068.6950357,0.0016155244845777134
1742986068.6960118,0.0016347569189179242
1742986068.6969876,0.001650142866390093
1742986068.6979635,0.0016559125966921565
1742986068.6989396,0.001660720705277209
1742986068.699916,0.00164437313608803
1742986068.7008917,0.0016578358401261775
1742986068.7018676,0.0016578358401261775
1742986068.7028437,0.0016520661098241142
1742986068.7038198,0.0016539893532581352
1742986068.7047956,0.0016578358401261775
1742986068.7057714,0.001643411514371019
1742986068.7067475,0.0016328336754839034
1742986068.7077239,0.0016164861062947242
1742986068.7086997,0.0015962920502375025
1742986068.7096756,0.0015934071850864711
1742986068.7106516,0.0015837909679163656
1742986068.7116277,0.0016030234022565764
1742986068.7126036,0.00160879313255864
1742986068.7135794,0.0016203325931627662
1742986068.7145557,0.001614562862860703
1742986068.7155318,0.001637641784068956
1742986068.7165077,0.0016549509749751456
1742986068.7174835,0.0016386034057859664
1742986068.7184596,0.0016337952972009138
1742986068.7194357,0.001646296379522051
1742986068.7204115,0.0016559125966921565
1742986068.7213876,0.0016751450310323673
1742986068.7223637,0.001704955304259694
1742986068.7233398,0.0017155331431468101
1742986068.7243156,0.0017155331431468101
1742986068.7252915,0.0017126482779957783
1742986068.7262676,0.001692454221938557
1742986068.7272437,0.0016549509749751456
1742986068.7282197,0.001637641784068956
1742986068.7291956,0.001643411514371019
1742986068.7301717,0.0016703369224473144
1742986068.7311478,0.0016789915179004095
1742986068.7321236,0.001667452057296283
1742986068.7330995,0.0016770682744663883
1742986068.7340755,0.0016712985441643252
1742986068.7350519,0.0016520661098241142
1742986068.7360277,0.0016386034057859664
1742986068.7370036,0.00162706394518184
1742986068.7379797,0.001602061780539566
1742986068.7389557,0.0015818677244823446
1742986068.7399316,0.001570328263878218
1742986068.7409074,0.0015568655598400703
1742986068.7418838,0.00155590393812306
1742986068.7428598,0.0015905223199354395
1742986068.7438357,0.00162706394518184
1742986068.7448115,0.0017039936825426836
1742986068.7457876,0.001745343416374137
1742986068.7467637,0.001793424502224664
1742986068.7477396,0.0018107336931308538
1742986068.7487156,0.001842467209792202
1742986068.7496917,0.00185689153554736
1742986068.7506678,0.001848236940094265
1742986068.7516437,0.0018366974794901385
1742986068.7526195,0.0018578531572643706
1742986068.7535956,0.001867469374434476
1742986068.7545717,0.00185689153554736
1742986068.7555478,0.0018511218052452967
1742986068.7565236,0.0018328509926220963
1742986068.7574997,0.0018347742360561175
1742986068.7584758,0.0018165034234329171
1742986068.7594516,0.0017905396370736324
1742986068.7604275,0.0017722688244504322
1742986068.7614036,0.0017693839592994006
1742986068.76238,0.0017674607158653791
1742986068.7633557,0.0017559212552612528
1742986068.7643316,0.0017270726037509367
1742986068.7653077,0.0017338039557700106
1742986068.7662838,0.001747266659808158
1742986068.7672596,0.0017482282815251685
1742986068.7682354,0.0017463050380911475
1742986068.7692115,0.0017790001764695059
1742986068.7701879,0.0017828466633375481
1742986068.7711637,0.0017693839592994006
1742986068.7721395,0.0017780385547524955
1742986068.7731156,0.001787654771922601
1742986068.7740917,0.0017982326108097167
1742986068.7750676,0.0017991942325267273
1742986068.7760434,0.001789578015356622
1742986068.7770197,0.0017857315284885798
1742986068.7779958,0.0017847699067715694
1742986068.7789717,0.0017838082850545587
1742986068.7799475,0.0017790001764695059
1742986068.7809236,0.0017780385547524955
1742986068.7818997,0.0017857315284885798
1742986068.7828755,0.0017780385547524955
1742986068.7838516,0.001764575850714348
1742986068.7848277,0.001780923419903527
1742986068.7858038,0.0017982326108097167
1742986068.7867796,0.0018059255845458012
1742986068.7877555,0.0017905396370736324
1742986068.7887316,0.0017924628805076536
1742986068.7897077,0.0017751536896014636
1742986068.7906837,0.0017770769330354849
1742986068.7916596,0.0017886163936396114
1742986068.7926357,0.0018068872062628116
1742986068.7936118,0.0017674607158653791
1742986068.7945876,0.001764575850714348
1742986068.7955635,0.0017713072027334216
1742986068.7965395,0.0017857315284885798
1742986068.7975159,0.001800155854243738
1742986068.7984917,0.0018241963971690016
1742986068.7994676,0.0018222731537349804
1742986068.8004436,0.0018299661274710647
1742986068.8014197,0.0018415055880751912
1742986068.8023956,0.0018501601835282863
1742986068.8033714,0.001860738022415402
1742986068.8043478,0.0018501601835282863
1742986068.8053238,0.0018665077527174655
1742986068.8062997,0.001865546131000455
1742986068.8072755,0.0018626612658494233
1742986068.8082516,0.00185689153554736
1742986068.8092277,0.001846313696660244
1742986068.8102036,0.0018357358577731281
1742986068.8111796,0.0018040023411117802
1742986068.8121557,0.0017838082850545587
1742986068.8131318,0.0017905396370736324
1742986068.8141077,0.0018040023411117802
1742986068.8150835,0.0018145801799988959
1742986068.8160596,0.001823234775451991
1742986068.8170357,0.0018540066703963286
1742986068.8180118,0.0019174737037190243
1742986068.8189876,0.001971324519871615
1742986068.8199637,0.001979017493607699
1742986068.8209398,0.0019530537072484143
1742986068.8219156,0.0019251666774551086
1742986068.8228915,0.0019184353254360347
1742986068.8238676,0.0019117039734169608
1742986068.824844,0.0018982412693788135
1742986068.8258197,0.0018742007264535498
1742986068.8267956,0.0018588147789813812
1742986068.8277717,0.0018443904532262228
1742986068.8287477,0.0018434288315092124
1742986068.8297236,0.001842467209792202
1742986068.8306994,0.001823234775451991
1742986068.8316755,0.001823234775451991
1742986068.8326519,0.001825158018886012
1742986068.8336277,0.001819388288583949
1742986068.8346035,0.0018309277491880755
1742986068.8355796,0.0018309277491880755
1742986068.8365557,0.0018366974794901385
1742986068.8375316,0.0018530450486793177
1742986068.8385074,0.001879970456755613
1742986068.8394837,0.0018703542395855078
1742986068.8404598,0.0018742007264535498
1742986068.8414357,0.0018915099173597396
1742986068.8424115,0.0018934331607937608
1742986068.8433876,0.0018770855916045816
1742986068.8443637,0.0018588147789813812
1742986068.8453395,0.0018366974794901385
1742986068.8463156,0.0018184266668669381
1742986068.8472917,0.001812656936564875
1742986068.8482678,0.001802079097677759
1742986068.8492436,0.001793424502224664
1742986068.8502195,0.001800155854243738
1742986068.8511956,0.0018011174759607485
1742986068.8521717,0.0017905396370736324
1742986068.8531477,0.0017857315284885798
1742986068.8541236,0.0017713072027334216
1742986068.8550997,0.0017732304461674428
1742986068.8560758,0.0017713072027334216
1742986068.8570516,0.0017539980118272318
1742986068.8580275,0.0017626526072803265
1742986068.8590035,0.001747266659808158
1742986068.8599799,0.0017357271992040314
1742986068.8609557,0.0017539980118272318
1742986068.8619316,0.001780923419903527
1742986068.8629076,0.0018030407193947693
1742986068.8638837,0.001831889370905086
1742986068.8648596,0.0018722774830195286
1742986068.8658354,0.0018578531572643706
1742986068.8668118,0.0018953564042277818
1742986068.8677878,0.0018905482956427292
1742986068.8687637,0.0018472753183772547
1742986068.8697395,0.0017770769330354849
1742986068.8707156,0.001770345581016411
1742986068.8716917,0.0017616909855633163
1742986068.8726676,0.001764575850714348
1742986068.8736436,0.0017491899032421791
1742986068.8746197,0.0018107336931308538
1742986068.8755958,0.001932859651191193
1742986068.8765717,0.0020078661451180153
1742986068.8775475,0.0020799877738938064
1742986068.8785236,0.0020751796653087533
1742986068.8794997,0.002039599661779363
1742986068.8804758,0.0020030580365329627
1742986068.8814516,0.0019905569542118255
1742986068.8824277,0.0020078661451180153
1742986068.8834038,0.002008827766835026
1742986068.8843796,0.0020097893885520366
1742986068.8853555,0.0020069045234010047
1742986068.8863316,0.0019992115496649207
1742986068.887308,0.001985748845626773
1742986068.8882837,0.001989595332494815
1742986068.8892596,0.001994403441079868
1742986068.8902357,0.0019847872239097623
1742986068.8912117,0.0019924801976458468
1742986068.8921876,0.001994403441079868
1742986068.8931634,0.0019905569542118255
1742986068.8941398,0.0019770942501736778
1742986068.8951159,0.0019530537072484143
1742986068.8960917,0.0019251666774551086
1742986068.8970675,0.001901126134529845
1742986068.8980436,0.0018915099173597396
1742986068.8990197,0.001883816943623655
1742986068.8999956,0.0018828553219066447
1742986068.9009714,0.001865546131000455
1742986068.9019477,0.0018684309961514865
1742986068.9029238,0.0018876634304916973
1742986068.9038997,0.0018943947825107712
1742986068.9048755,0.0019020877562468555
1742986068.9058516,0.0019020877562468555
1742986068.9068277,0.0018886250522087077
1742986068.9078035,0.0018742007264535498
1742986068.9087796,0.001860738022415402
1742986068.9097557,0.0018626612658494233
1742986068.9107318,0.001860738022415402
1742986068.9117076,0.0018472753183772547
1742986068.9126835,0.001846313696660244
1742986068.9136596,0.0018472753183772547
1742986068.9146357,0.0018491985618112755
1742986068.9156117,0.0018453520749432334
1742986068.9165876,0.001842467209792202
1742986068.9175637,0.0018472753183772547
1742986068.9185398,0.0018443904532262228
1742986068.9195156,0.0018472753183772547
1742986068.9204915,0.0018395823446411702
1742986068.9214675,0.0018280428840370436
1742986068.9224439,0.0018213115320179698
1742986068.9234197,0.001819388288583949
1742986068.9243956,0.0018290045057540543
1742986068.9253716,0.0018386207229241598
1742986068.9263477,0.001846313696660244
1742986068.9273236,0.0018588147789813812
1742986068.9282994,0.0018434288315092124
1742986068.9292758,0.001842467209792202
1742986068.9302518,0.001837659101207149
1742986068.9312277,0.0018290045057540543
1742986068.9322035,0.0018270812623200332
1742986068.9331796,0.0018270812623200332
1742986068.9341557,0.0018357358577731281
1742986068.9351315,0.0018491985618112755
1742986068.9361076,0.0018636228875664339
1742986068.9370837,0.001879970456755613
1742986068.9380598,0.001865546131000455
1742986068.9390357,0.0018520834269623073
1742986068.9400115,0.0018530450486793177
1742986068.9409876,0.0018520834269623073
1742986068.9419637,0.0018578531572643706
1742986068.9429398,0.001823234775451991
1742986068.9439156,0.001812656936564875
1742986068.9448917,0.0017943861239416747
1742986068.9458678,0.0017741920678844532
1742986068.9468436,0.0017982326108097167
1742986068.9478195,0.00185689153554736
1742986068.9487956,0.00190978072998294
1742986068.949772,0.001957861815833467
1742986068.9507477,0.0019992115496649207
1742986068.9517236,0.002021328849156163
1742986068.9526997,0.002048254257232458
1742986068.9536757,0.0020703715567237007
1742986068.9546516,0.002046331013798437
1742986068.9556274,0.002017482362288121
1742986068.9566038,0.0020040196582499733
1742986068.9575799,0.0020376764183453423
1742986068.9585557,0.0020771029087427745
1742986068.9595315,0.0020771029087427745
1742986068.9605076,0.0020501775006664794
1742986068.9614837,0.0020347915531943104
1742986068.9624596,0.0019905569542118255
1742986068.9634354,0.0019694012764375937
1742986068.9644117,0.001972286141588625
1742986068.9653878,0.001971324519871615
1742986068.9663637,0.0019828639804757415
1742986068.9673395,0.0020078661451180153
1742986068.9683156,0.002008827766835026
1742986068.9692917,0.001994403441079868
1742986068.9702675,0.00199824992794791
1742986068.9712436,0.0019972883062308994
1742986068.9722197,0.001975171006739657
1742986068.9731958,0.0019549769506824357
1742986068.9741716,0.0019367061380592351
1742986068.9751475,0.0019347828946252139
1742986068.9761236,0.001943437490078309
1742986068.9770997,0.0019309364077571718
1742986068.9780757,0.0019347828946252139
1742986068.9790516,0.001957861815833467
1742986068.9800277,0.001955938572399446
1742986068.9810038,0.00196266992441852
1742986068.9819796,0.001952092085531404
1742986068.9829555,0.0019299747860401612
1742986068.9839315,0.0019405526249272774
1742986068.9849079,0.001952092085531404
1742986068.9858837,0.0019290131643231508
1742986068.9868596,0.0018963180259447922
1742986068.9878356,0.0018665077527174655
1742986068.9888117,0.0018713158613025182
1742986068.9897876,0.0018703542395855078
1742986068.9907634,0.0018818937001896343
1742986068.9917397,0.0018742007264535498
1742986068.9927158,0.0018847785653406657
1742986068.9936917,0.0018963180259447922
1742986068.9946675,0.0018857401870576765
1742986068.9956436,0.0018751623481705604
1742986068.9966197,0.0018703542395855078
1742986068.9975955,0.0018732391047365394
1742986068.9985716,0.0018722774830195286
1742986068.9995477,0.0018742007264535498
1742986069.0005238,0.0018761239698875708
1742986069.0014997,0.0018972796476618029
1742986069.0024755,0.0019126655951339716
1742986069.0034516,0.0019020877562468555
1742986069.0044277,0.0018857401870576765
1742986069.0054038,0.001878047213321592
1742986069.0063796,0.0018645845092834443
1742986069.0073557,0.0018472753183772547
1742986069.0083318,0.001825158018886012
1742986069.0093076,0.0018040023411117802
1742986069.0102835,0.001800155854243738
1742986069.0112596,0.0017818850416205375
1742986069.0122359,0.0017501515249591898
1742986069.0132117,0.0017511131466762002
1742986069.0141876,0.0017386120643550632
1742986069.0151637,0.0017213028734488732
1742986069.0161397,0.001692454221938557
1742986069.0171156,0.0016712985441643252
1742986069.0180914,0.001669375300730304
1742986069.0190678,0.001660720705277209
1742986069.0200438,0.0016453347578050403
1742986069.0210197,0.0016289871886158611
1742986069.0219955,0.0016155244845777134
1742986069.0229716,0.0015953304285204921
1742986069.0239477,0.0015982152936715238
1742986069.0249236,0.001612639619426682
1742986069.0258994,0.0016520661098241142
1742986069.0268757,0.0016972623305236097
1742986069.0278518,0.001734765577487021
1742986069.0288277,0.0017376504426380526
1742986069.0298035,0.001717456386580831
1742986069.0307796,0.0017213028734488732
1742986069.0317557,0.0017126482779957783
1742986069.0327315,0.0017213028734488732
1742986069.0337076,0.001722264495165884
1742986069.0346837,0.0017155331431468101
1742986069.0356598,0.0017020704391086626
1742986069.0366356,0.001692454221938557
1742986069.0376115,0.0016828380047684518
1742986069.0385876,0.0016770682744663883
1742986069.039564,0.0016472580012390613
1742986069.0405397,0.0016309104320498822
1742986069.0415156,0.0016184093497287452
1742986069.0424917,0.0016568742184091669
1742986069.0434678,0.001676106652749378
1742986069.0444436,0.0017270726037509367
1742986069.0454195,0.0017713072027334216
1742986069.0463955,0.0017722688244504322
1742986069.0473719,0.0018684309961514865
1742986069.0483477,0.0019607466809844986
1742986069.0493236,0.0019886337107778043
1742986069.0502996,0.0019569001941164565
1742986069.0512757,0.001916512082002014
1742986069.0522516,0.0018684309961514865
1742986069.0532274,0.00185689153554736
1742986069.0542037,0.0018530450486793177
1742986069.0551798,0.0018597764006983916
1742986069.0561557,0.0018703542395855078
1742986069.0571315,0.0018703542395855078
1742986069.0581076,0.001854968292113339
1742986069.0590837,0.0018328509926220963
1742986069.0600595,0.0018434288315092124
1742986069.0610356,0.0018491985618112755
1742986069.0620117,0.0018540066703963286
1742986069.0629878,0.0018530450486793177
1742986069.0639637,0.0018386207229241598
1742986069.0649395,0.0018511218052452967
1742986069.0659156,0.001860738022415402
1742986069.0668917,0.0018540066703963286
1742986069.0678678,0.0018165034234329171
1742986069.0688436,0.0018040023411117802
1742986069.0698197,0.001802079097677759
1742986069.0707958,0.0018030407193947693
1742986069.0717716,0.0018241963971690016
1742986069.0727475,0.0018184266668669381
1742986069.0737236,0.001823234775451991
1742986069.0746999,0.0018174650451499277
1742986069.0756757,0.0018116953148478645
1742986069.0766516,0.0018068872062628116
1742986069.0776277,0.0017982326108097167
1742986069.0786037,0.001787654771922601
1742986069.0795796,0.0017626526072803265
1742986069.0805554,0.0017241877385999048
1742986069.0815318,0.0017155331431468101
1742986069.0825078,0.0017126482779957783
1742986069.0834837,0.0017039936825426836
1742986069.0844595,0.0017068785476937152
1742986069.0854356,0.0017011088173916518
1742986069.0864117,0.0016780298961833987
1742986069.0873876,0.0016539893532581352
1742986069.0883634,0.0016328336754839034
1742986069.0893397,0.0016184093497287452
1742986069.0903158,0.0015645585335761546
1742986069.0912917,0.001504937987121501
1742986069.0922675,0.0014914752830833533
1742986069.0932436,0.0014433941972328262
1742986069.0942197,0.001386658515929204
1742986069.0951955,0.0013856968942121935
1742986069.0961716,0.0014030060851183835
1742986069.0971477,0.0014501255492519
1742986069.0981238,0.0014683963618751003
1742986069.0990996,0.0014780125790452058
1742986069.1000755,0.0014933985265173746
1742986069.1010516,0.0015135925825745958
1742986069.102028,0.0015414796123679015
1742986069.1030037,0.0016039850239735868
1742986069.1039796,0.0016876461133535044
1742986069.1049557,0.0017328423340529997
1742986069.1059318,0.0017761153113184745
1742986069.1069076,0.001763614228997337
1742986069.1078835,0.0017318807123359893
1742986069.1088595,0.0017386120643550632
1742986069.1098359,0.0017299574689019683
1742986069.1108117,0.0016953390870895887
1742986069.1117876,0.0017059169259767048
1742986069.1127636,0.0017088017911277363
1742986069.1137397,0.0016963007088065991
1742986069.1147156,0.0016847612482024726
1742986069.1156914,0.0016616823269942195
1742986069.1166677,0.0016424498926540087
1742986069.1176438,0.001570328263878218
1742986069.1186197,0.001524170421461712
1742986069.1195955,0.0015126309608575854
1742986069.1205716,0.0014924369048003642
1742986069.1215477,0.0014751277138941741
1742986069.1225235,0.0014799358224792268
1742986069.1234996,0.0015501342078209964
1742986069.1244757,0.0016491812446730826
1742986069.1254518,0.001676106652749378
1742986069.1264277,0.001646296379522051
1742986069.1274035,0.00160879313255864
1742986069.1283796,0.0015991769153885342
1742986069.1293557,0.0016203325931627662
1742986069.1303318,0.0016626439487112301
1742986069.1313076,0.0016982239522406203
1742986069.1322837,0.0016751450310323673
1742986069.1332598,0.0016751450310323673
1742986069.1342356,0.0016549509749751456
1742986069.1352115,0.0016626439487112301
1742986069.1361876,0.001646296379522051
1742986069.1371639,0.001681876383051441
1742986069.1381397,0.0017299574689019683
1742986069.1391156,0.0017414969295060949
1742986069.1400917,0.0017501515249591898
1742986069.1410677,0.0017241877385999048
1742986069.1420436,0.0017155331431468101
1742986069.1430194,0.001699185573957631
1742986069.1439958,0.0016684136790132934
1742986069.1449718,0.0016568742184091669
1742986069.1459477,0.0016664904355792722
1742986069.1469235,0.0016809147613344305
1742986069.1478996,0.001703032060825673
1742986069.1488757,0.0017059169259767048
1742986069.1498516,0.0017068785476937152
1742986069.1508274,0.001704955304259694
1742986069.1518037,0.001728034225467947
1742986069.1527798,0.0017001471956746414
1742986069.1537557,0.001690530978504536
1742986069.1547315,0.0016876461133535044
1742986069.1557076,0.001673221787598346
1742986069.1566837,0.0016741834093153567
1742986069.1576595,0.0016857228699194832
1742986069.1586356,0.0017068785476937152
1742986069.1596117,0.0017107250345617575
1742986069.1605878,0.0017001471956746414
1742986069.1615636,0.0017039936825426836
1742986069.1625395,0.0016857228699194832
1742986069.1635156,0.0016587974618431879
1742986069.164492,0.0016789915179004095
1742986069.1654677,0.0016953390870895887
1742986069.1664436,0.0017107250345617575
1742986069.1674197,0.0017126482779957783
1742986069.1683958,0.0017001471956746414
1742986069.1693716,0.0016953390870895887
1742986069.1703475,0.0016914926002215465
1742986069.1713235,0.0016943774653725783
1742986069.1722999,0.0016780298961833987
1742986069.1732757,0.0016530277315411248
1742986069.1742516,0.0016222558365967873
1742986069.1752276,0.00159148394165245
1742986069.1762037,0.0015655201552931652
1742986069.1771796,0.0015568655598400703
1742986069.1781554,0.0015578271815570807
1742986069.1791317,0.0015578271815570807
1742986069.1801078,0.0015482109643869754
1742986069.1810837,0.0015510958295380072
1742986069.1820595,0.0015809061027653338
1742986069.1830356,0.0015809061027653338
1742986069.1840117,0.0015434028558019227
1742986069.1849875,0.001494360148234385
1742986069.1859636,0.0014655114967240688
1742986069.1869397,0.001462626631573037
1742986069.1879158,0.001427046628043647
1742986069.1888916,0.0013905050027972462
1742986069.1898675,0.0013808887856271409
1742986069.1908436,0.001428969871477668
1742986069.1918197,0.001481859065913248
1742986069.1927958,0.0015357098820658385
1742986069.1937716,0.0015635969118591442
1742986069.1947477,0.0015664817770101758
1742986069.1957238,0.0016030234022565764
1742986069.1966996,0.0016222558365967873
1742986069.1976755,0.0016299488103328715
1742986069.1986516,0.001660720705277209
1742986069.1996279,0.0016770682744663883
1742986069.2006037,0.0016414882709369983
1742986069.2015796,0.0015837909679163656
1742986069.2025557,0.0015520574512550176
1742986069.2035317,0.0015184006911596484
1742986069.2045076,0.0015078228522725327
1742986069.2054834,0.001471281227026132
1742986069.2064598,0.0014414709537988052
1742986069.2074358,0.0014674347401580896
1742986069.2084117,0.001464549875007058
1742986069.2093875,0.001494360148234385
1742986069.2103636,0.0015203239345936697
1742986069.2113397,0.001549172586103986
1742986069.2123156,0.0015799444810483234
1742986069.2132914,0.001612639619426682
1742986069.2142677,0.00162706394518184
1742986069.2152438,0.0016405266492199877
1742986069.2162197,0.001646296379522051
1742986069.2171955,0.0016280255668988505
1742986069.2181716,0.001607831510841629
1742986069.2191477,0.0015934071850864711
1742986069.2201235,0.0015770596158972917
1742986069.2210996,0.0015991769153885342
1742986069.2220757,0.0015809061027653338
1742986069.2230518,0.0015972536719545134
1742986069.2240276,0.0016386034057859664
1742986069.2250035,0.0016337952972009138
1742986069.2259796,0.00160879313255864
1742986069.226956,0.001607831510841629
1742986069.2279317,0.0015837909679163656
1742986069.2289076,0.0015741747507462603
1742986069.2298837,0.0015539806946890387
1742986069.2308598,0.0015443644775189334
1742986069.2318356,0.0015712898855952285
1742986069.2328115,0.001582829346199355
1742986069.2337875,0.001607831510841629
1742986069.2347639,0.0016232174583137979
1742986069.2357397,0.0016232174583137979
1742986069.2367156,0.0016530277315411248
1742986069.2376916,0.0016491812446730826
1742986069.2386677,0.0016559125966921565
1742986069.2396436,0.0016636055704282407
1742986069.2406194,0.0016597590835601987
1742986069.2415957,0.0016568742184091669
1742986069.2425718,0.001650142866390093
1742986069.2435477,0.001650142866390093
1742986069.2445235,0.0016232174583137979
1742986069.2454996,0.0016116779977096713
1742986069.2464757,0.001582829346199355
1742986069.2474515,0.0015751363724632707
1742986069.2484276,0.0015684050204441968
1742986069.2494037,0.0015645585335761546
1742986069.2503798,0.0015434028558019227
1742986069.2513556,0.0015366715037828489
1742986069.2523315,0.0015337866386318172
1742986069.2533076,0.0015001298785364485
1742986069.2542837,0.0015001298785364485
1742986069.2552598,0.001549172586103986
1742986069.2562356,0.0015866758330673972
1742986069.2572117,0.0016530277315411248
1742986069.2581878,0.001692454221938557
1742986069.2591636,0.001722264495165884
1742986069.2601395,0.00167995313961742
1742986069.2611156,0.0015885990765014183
1742986069.2620919,0.0015010915002534589
1742986069.2630677,0.0014732044704601531
1742986069.2640436,0.0014414709537988052
1742986069.2650197,0.0013539633775508455
1742986069.2659957,0.0013241531043235186
1742986069.2669716,0.0013780039204761092
1742986069.2679474,0.0014222385194585943
1742986069.2689238,0.0014933985265173746
1742986069.2698998,0.0016068698891246187
1742986069.2708757,0.0017299574689019683
1742986069.2718515,0.0018059255845458012
1742986069.2728276,0.0017991942325267273
1742986069.2738037,0.0017684223375823902
1742986069.2747796,0.001736688820921042
1742986069.2757554,0.0017068785476937152
1742986069.2767317,0.0016636055704282407
1742986069.2777078,0.0016472580012390613
1742986069.2786837,0.001643411514371019
1742986069.2796595,0.0016299488103328715
1742986069.2806356,0.0015972536719545134
1742986069.2816117,0.001602061780539566
1742986069.2825878,0.0016174477280117346
1742986069.2835636,0.0016097547542756503
1742986069.2845397,0.0016030234022565764
1742986069.2855158,0.00159148394165245
1742986069.2864916,0.0015943688068034815
1742986069.2874675,0.0015770596158972917
1742986069.2884436,0.0015568655598400703
1742986069.28942,0.0015453260992359438
1742986069.2903957,0.0015501342078209964
1742986069.2913716,0.00155590393812306
1742986069.2923477,0.0015443644775189334
1742986069.2933238,0.0015376331254998595
1742986069.2942996,0.0015520574512550176
1742986069.2952754,0.0015434028558019227
1742986069.2962515,0.0015280169083297542
1742986069.2972279,0.0015097460957065538
1742986069.2982037,0.0014789742007622162
1742986069.2991796,0.0014472406841008684
1742986069.3001556,0.0014472406841008684
1742986069.3011317,0.0014491639275348897
1742986069.3021076,0.0015020531219704695
1742986069.3030834,0.001559750424991102
1742986069.3040597,0.0015895606982184289
1742986069.3050358,0.0015732131290292495
1742986069.3060117,0.0015280169083297542
1742986069.3069875,0.001494360148234385
1742986069.3079636,0.0014347396017797313
1742986069.3089397,0.00139723635481632
1742986069.3099155,0.0014068525719864256
1742986069.3108916,0.001418392032590552
1742986069.3118677,0.001471281227026132
1742986069.3128438,0.0015328250169148068
1742986069.3138196,0.0015866758330673972
1742986069.3147955,0.0015837909679163656
1742986069.3157716,0.0016011001588225554
1742986069.3167477,0.0016212942148797769
1742986069.3177238,0.0016011001588225554
1742986069.3186996,0.0016193709714457556
1742986069.3196757,0.001643411514371019
1742986069.3206518,0.0016482196229560722
1742986069.3216276,0.0015837909679163656
1742986069.3226035,0.0015270552866127436
1742986069.3235795,0.0014568569012709737
1742986069.3245559,0.0014174304108735415
1742986069.3255317,0.0014068525719864256
1742986069.3265076,0.0014664731184410792
1742986069.3274837,0.001524170421461712
1742986069.3284597,0.001549172586103986
1742986069.3294356,0.0015857142113503868
1742986069.3304114,0.0016184093497287452
1742986069.3313878,0.001669375300730304
1742986069.3323638,0.0016857228699194832
1742986069.3333397,0.0016837996264854622
1742986069.3343155,0.0016712985441643252
1742986069.3352916,0.001676106652749378
1742986069.3362677,0.0016597590835601987
1742986069.3372436,0.0016328336754839034
1742986069.3382194,0.0016261023234648295
1742986069.3391957,0.0016357185406349348
1742986069.3401718,0.0016241790800308085
1742986069.3411477,0.00164437313608803
1742986069.3421235,0.0016491812446730826
1742986069.3430996,0.0016107163759926607
1742986069.3440757,0.001602061780539566
1742986069.3450518,0.001570328263878218
1742986069.3460276,0.0014751277138941741
1742986069.3470037,0.0013741574336080672
1742986069.3479798,0.0013549249992678562
1742986069.3489556,0.0013549249992678562
1742986069.3499315,0.0013770422987590986
1742986069.3509076,0.0014443558189498366
1742986069.351884,0.0015232087997447015
1742986069.3528597,0.0015818677244823446
1742986069.3538356,0.0016155244845777134
1742986069.3548117,0.0015905223199354395
1742986069.3557878,0.0015482109643869754
1742986069.3567636,0.001553019072972028
1742986069.3577394,0.0015799444810483234
1742986069.3587155,0.0016482196229560722
1742986069.3596919,0.0016809147613344305
1742986069.3606677,0.0017309190906189787
1742986069.3616436,0.001667452057296283
1742986069.3626196,0.0015876374547844076
1742986069.3635957,0.0015520574512550176
1742986069.3645716,0.001529940151763775
1742986069.3655474,0.0015135925825745958
1742986069.3665237,0.0015184006911596484
1742986069.3674998,0.001504937987121501
1742986069.3684757,0.0015193623128766593
1742986069.3694515,0.0015520574512550176
1742986069.3704276,0.001559750424991102
1742986069.3714037,0.0015520574512550176
1742986069.3723795,0.0015626352901421338
1742986069.3733556,0.0015366715037828489
1742986069.3743317,0.001481859065913248
1742986069.3753078,0.0014126223022884888
1742986069.3762836,0.0014087758154204466
1742986069.3772595,0.0013260763477575398
1742986069.3782356,0.0012549163406987596
1742986069.3792117,0.0012462617452456645
1742986069.3801877,0.0012876114790771182
1742986069.3811636,0.0013010741831152657
1742986069.3821397,0.0013453087820977508
1742986069.3831158,0.0014260850063266366
1742986069.3840916,0.0015232087997447015
1742986069.3850675,0.0016222558365967873
1742986069.3860435,0.0017328423340529997
1742986069.3870199,0.0016982239522406203
1742986069.3879957,0.001676106652749378
1742986069.3889716,0.001673221787598346
1742986069.3899477,0.0016568742184091669
1742986069.3909237,0.0016116779977096713
1742986069.3918996,0.0015934071850864711
1742986069.3928754,0.0015962920502375025
1742986069.3938518,0.0016001385371055448
1742986069.3948278,0.0016318720537668926
1742986069.3958037,0.0016616823269942195
1742986069.3967795,0.0016751450310323673
1742986069.3977556,0.001747266659808158
1742986069.3987317,0.0017790001764695059
1742986069.3997076,0.0017559212552612528
1742986069.4006834,0.0017414969295060949
1742986069.4016597,0.0017107250345617575
1742986069.4026358,0.0016712985441643252
1742986069.4036117,0.0016337952972009138
1742986069.4045875,0.0016136012411436926
1742986069.4055636,0.0015962920502375025
1742986069.4065397,0.0015751363724632707
1742986069.4075158,0.0015693666421612072
1742986069.4084916,0.001561673668425123
1742986069.4094677,0.0015587888032740915
1742986069.4104438,0.0015655201552931652
1742986069.4114196,0.0015482109643869754
1742986069.4123955,0.0015645585335761546
1742986069.4133716,0.0015443644775189334
1742986069.414348,0.0015453260992359438
1742986069.4153237,0.0015549423164060493
1742986069.4162996,0.0015876374547844076
1742986069.4172757,0.0015751363724632707
1742986069.4182518,0.001561673668425123
1742986069.4192276,0.001549172586103986
1742986069.4202034,0.0015549423164060493
1742986069.4211795,0.0015818677244823446
1742986069.4221559,0.0015962920502375025
1742986069.4231317,0.001582829346199355
1742986069.4241076,0.00155590393812306
1742986069.4250836,0.0015501342078209964
1742986069.4260597,0.0015424412340849121
1742986069.4270356,0.0015510958295380072
1742986069.4280114,0.0015539806946890387
1742986069.4289877,0.0015414796123679015
1742986069.4299638,0.0015376331254998595
1742986069.4309397,0.0015337866386318172
1742986069.4319155,0.001515515826008617
1742986069.4328916,0.0014722428487431423
1742986069.4338677,0.0014241617628926154
1742986069.4348435,0.0013895433810802358
1742986069.4358196,0.0013789655421931198
1742986069.4367957,0.0013481936472487825
1742986069.4377718,0.0013462704038147612
1742986069.4387476,0.0012991509396812447
1742986069.4397235,0.0012145282285843167
1742986069.4406996,0.0011193276786002728
1742986069.4416757,0.0010847092967878934
1742986069.4426517,0.0010510525366925242
1742986069.4436276,0.0010847092967878934
1742986069.4446037,0.0012703022881709284
1742986069.4455798,0.0015039763654044905
1742986069.4465556,0.0016241790800308085
1742986069.4475315,0.0016847612482024726
1742986069.4485075,0.0017318807123359893
1742986069.4494839,0.0017203412517318628
1742986069.4504597,0.001722264495165884
1742986069.4514356,0.0017203412517318628
1742986069.4524117,0.0016703369224473144
1742986069.4533877,0.0016587974618431879
1742986069.4543636,0.001614562862860703
1742986069.4553394,0.0015905223199354395
1742986069.4563158,0.0016174477280117346
1742986069.4572918,0.0015664817770101758
1742986069.4582677,0.0014914752830833533
1742986069.4592435,0.001427046628043647
1742986069.4602196,0.0014020444634013727
1742986069.4611957,0.0013770422987590986
1742986069.4621716,0.0013712725684570353
1742986069.4631474,0.0014414709537988052
1742986069.4641237,0.0015087844739895431
1742986069.4650998,0.0015568655598400703
1742986069.4660757,0.001549172586103986
1742986069.4670515,0.001559750424991102
1742986069.4680276,0.0015674433987271864
1742986069.4690037,0.0015760979941802811
1742986069.4699798,0.001607831510841629
1742986069.4709556,0.001669375300730304
1742986069.4719317,0.001690530978504536
1742986069.4729078,0.001690530978504536
1742986069.4738836,0.0016914926002215465
1742986069.4748595,0.0016751450310323673
1742986069.4758356,0.0016251407017478189
1742986069.476812,0.0015953304285204921
1742986069.4777877,0.0015510958295380072
1742986069.4787636,0.0015655201552931652
1742986069.4797397,0.0015424412340849121
1742986069.4807158,0.0014780125790452058
1742986069.4816916,0.001439547710364784
1742986069.4826674,0.0014847439310642797
1742986069.4836435,0.0015770596158972917
1742986069.4846199,0.0016539893532581352
1742986069.4855957,0.0016386034057859664
1742986069.4865716,0.0016174477280117346
1742986069.4875476,0.001605908267407608
1742986069.4885237,0.0015934071850864711
1742986069.4894996,0.0015962920502375025
1742986069.4904754,0.0016299488103328715
1742986069.4914517,0.0016616823269942195
1742986069.4924278,0.0016963007088065991
1742986069.4934037,0.001717456386580831
1742986069.4943795,0.00164437313608803
1742986069.4953556,0.001614562862860703
1742986069.4963317,0.0015539806946890387
1742986069.4973075,0.0014722428487431423
1742986069.4982836,0.0014241617628926154
1742986069.4992597,0.001368387703306004
1742986069.5002358,0.0013356925649276451
1742986069.5012116,0.0013731958118910566
1742986069.5021875,0.0014732044704601531
1742986069.5031636,0.0015030147436874799
1742986069.5041397,0.0014751277138941741
1742986069.5051157,0.0013760806770420882
1742986069.5060916,0.0013395390517956874
1742986069.5070677,0.0013712725684570353
1742986069.5080438,0.001405890950269415
1742986069.5090196,0.001452048792685921
1742986069.5099955,0.0015760979941802811
1742986069.5109715,0.0016963007088065991
1742986069.5119479,0.0016789915179004095
1742986069.5129237,0.0016741834093153567
1742986069.5138996,0.001646296379522051
1742986069.5148757,0.0016405266492199877
1742986069.5158517,0.0016261023234648295
1742986069.5168276,0.0016232174583137979
1742986069.5178034,0.0016299488103328715
1742986069.5187798,0.0016511044881071036
1742986069.5197558,0.0015760979941802811
1742986069.5207317,0.0015270552866127436
1742986069.5217075,0.0014760893356111845
1742986069.5226836,0.0014597417664220054
1742986069.5236597,0.0014597417664220054
1742986069.5246356,0.0014808974441962374
1742986069.5256116,0.0015203239345936697
1742986069.5265877,0.0015741747507462603
1742986069.5275638,0.0015885990765014183
1742986069.5285397,0.0015924455633694603
1742986069.5295155,0.0015799444810483234
1742986069.5304916,0.001529940151763775
1742986069.5314677,0.0014808974441962374
1742986069.5324438,0.0014049293285524043
1742986069.5334196,0.00136165635128693
1742986069.5343957,0.001315498508870424
1742986069.5353718,0.0013260763477575398
1742986069.5363476,0.0013731958118910566
1742986069.5373235,0.0014414709537988052
1742986069.5382996,0.0015001298785364485
1742986069.539276,0.0015001298785364485
1742986069.5402517,0.0016116779977096713
1742986069.5412276,0.0016655288138622618
1742986069.5422037,0.001692454221938557
1742986069.5431798,0.001673221787598346
1742986069.5441556,0.001605908267407608
1742986069.5451314,0.0015760979941802811
1742986069.5461075,0.0015424412340849121
1742986069.5470839,0.0014664731184410792
1742986069.5480597,0.0014568569012709737
1742986069.5490355,0.0014664731184410792
1742986069.5500116,0.001481859065913248
1742986069.5509877,0.001524170421461712
1742986069.5519636,0.001570328263878218
1742986069.5529394,0.0015962920502375025
1742986069.5539157,0.00159148394165245
1742986069.5548918,0.0015876374547844076
1742986069.5558677,0.0016222558365967873
1742986069.5568435,0.0016703369224473144
1742986069.5578196,0.001699185573957631
1742986069.5587957,0.0016828380047684518
1742986069.5597715,0.0016472580012390613
1742986069.5607476,0.0016193709714457556
1742986069.5617237,0.0015866758330673972
1742986069.5626998,0.0015712898855952285
1742986069.5636756,0.0015780212376143023
1742986069.5646515,0.001559750424991102
1742986069.5656276,0.001559750424991102
1742986069.5666037,0.0015655201552931652
1742986069.5675797,0.0015607120467081125
1742986069.5685556,0.0015539806946890387
1742986069.5695317,0.0015020531219704695
1742986069.5705078,0.0014607033881390158
1742986069.5714836,0.0013885817593632251
1742986069.5724595,0.0013251147260405294
1742986069.5734355,0.0012289525543394749
1742986069.5744119,0.0012164514720183377
1742986069.5753877,0.0012106817417162745
1742986069.5763636,0.0012606860710008229
1742986069.5773396,0.0012924195876621708
1742986069.5783157,0.0013558866209848668
1742986069.5792916,0.0014482023058178788
1742986069.5802674,0.0014664731184410792
1742986069.5812438,0.001524170421461712
1742986069.5822198,0.0015587888032740915
1742986069.5831957,0.0015587888032740915
1742986069.5841715,0.0015635969118591442
1742986069.5851476,0.0015414796123679015
1742986069.5861237,0.0015068612305555221
1742986069.5870996,0.0015010915002534589
1742986069.5880756,0.0015212855563106803
1742986069.5890517,0.0015664817770101758
1742986069.5900278,0.0015991769153885342
1742986069.5910037,0.001526093664895733
1742986069.5919795,0.0014732044704601531
1742986069.5929556,0.001439547710364784
1742986069.5939317,0.0013981979765333304
1742986069.5949078,0.0013828120290611619
1742986069.5958836,0.0014443558189498366
1742986069.5968597,0.0015414796123679015
1742986069.5978358,0.0016299488103328715
1742986069.5988116,0.0016876461133535044
1742986069.5997875,0.0016655288138622618
1742986069.6007636,0.0015934071850864711
1742986069.60174,0.0016174477280117346
1742986069.6027157,0.0016751450310323673
1742986069.6036916,0.0017193796300148522
1742986069.6046677,0.0016568742184091669
1742986069.6056437,0.0015587888032740915
1742986069.6066196,0.0014991682568194376
1742986069.6075954,0.0014482023058178788
1742986069.6085715,0.0013539633775508455
1742986069.6095479,0.00130876715685135
1742986069.6105237,0.0013260763477575398
1742986069.6114995,0.0014337779800627209
1742986069.6124756,0.0015539806946890387
1742986069.6134517,0.0016039850239735868
1742986069.6144276,0.0016520661098241142
1742986069.6154034,0.0016703369224473144
1742986069.6163797,0.0016712985441643252
1742986069.6173558,0.0016578358401261775
1742986069.6183317,0.0016684136790132934
1742986069.6193075,0.0017164947648638205
1742986069.6202836,0.0017443817946571263
1742986069.6212597,0.001717456386580831
1742986069.6222355,0.0017155331431468101
1742986069.6232116,0.00167995313961742
1742986069.6241877,0.0016482196229560722
1742986069.6251638,0.0016164861062947242
1742986069.6261396,0.0015741747507462603
1742986069.6271155,0.0015664817770101758
1742986069.6280916,0.0015818677244823446
1742986069.6290677,0.0015857142113503868
1742986069.6300437,0.0015684050204441968
1742986069.6310196,0.0015568655598400703
1742986069.6319957,0.0015135925825745958
1742986069.6329718,0.0015068612305555221
1742986069.6339476,0.0014991682568194376
1742986069.6349235,0.001462626631573037
1742986069.6358995,0.0013895433810802358
1742986069.6368759,0.0013693493250230145
1742986069.6378517,0.0013308844563425925
1742986069.6388276,0.0012251060674714328
1742986069.6398036,0.0011424065998085259
1742986069.6407797,0.0011539460604126524
1742986069.6417556,0.0012279909326224643
1742986069.6427314,0.0012933812093791814
1742986069.6437078,0.0013558866209848668
1742986069.6446838,0.0015203239345936697
1742986069.6456597,0.001650142866390093
1742986069.6466355,0.0017463050380911475
1742986069.6476116,0.0016645671921452514
1742986069.6485877,0.0015482109643869754
1742986069.6495636,0.0014760893356111845
1742986069.6505396,0.001584752589633376
1742986069.6515157,0.0017001471956746414
1742986069.6524918,0.0018203499103009594
1742986069.6534677,0.001886701808774687
1742986069.6544435,0.0018145801799988959
1742986069.6554196,0.0016626439487112301
1742986069.6563957,0.0016261023234648295
1742986069.6573718,0.0016241790800308085
1742986069.6583476,0.0015876374547844076
1742986069.6593237,0.0014905136613663427
1742986069.6602998,0.0014260850063266366
1742986069.6612756,0.0014751277138941741
1742986069.6622515,0.0014732044704601531
1742986069.6632276,0.0015222471780276907
1742986069.664204,0.0016184093497287452
1742986069.6651797,0.0016568742184091669
1742986069.6661556,0.001681876383051441
1742986069.6671317,0.0016587974618431879
1742986069.6681077,0.0016280255668988505
1742986069.6690836,0.0015337866386318172
1742986069.6700594,0.0014414709537988052
1742986069.6710358,0.0013943514896652884
1742986069.6720119,0.0014116606805714782
1742986069.6729877,0.001471281227026132
1742986069.6739635,0.001529940151763775
1742986069.6749396,0.0015674433987271864
1742986069.6759157,0.001676106652749378
1742986069.6768916,0.0017539980118272318
1742986069.6778674,0.0018299661274710647
1742986069.6788437,0.0017424585512231053
1742986069.6798198,0.001637641784068956
1742986069.6807957,0.0015809061027653338
1742986069.6817715,0.0016347569189179242
1742986069.6827476,0.0016636055704282407
1742986069.6837237,0.0015857142113503868
1742986069.6846995,0.001526093664895733
1742986069.6856756,0.0013924282462312674
1742986069.6866517,0.0013174217523044451
1742986069.6876278,0.0013905050027972462
1742986069.6886036,0.0015635969118591442
1742986069.6895795,0.0016039850239735868
1742986069.6905556,0.0015760979941802811
1742986069.6915317,0.0015376331254998595
1742986069.6925077,0.0015203239345936697
1742986069.6934836,0.0015058996088385115
1742986069.6944597,0.0014933985265173746
1742986069.6954358,0.0015087844739895431
1742986069.6964116,0.0015039763654044905
1742986069.6973875,0.001570328263878218
1742986069.6983635,0.0016597590835601987
1742986069.6993399,0.0017203412517318628
1742986069.7003157,0.0016963007088065991
1742986069.7012916,0.001667452057296283
1742986069.7022676,0.0016664904355792722
1742986069.7032437,0.0016520661098241142
1742986069.7042196,0.0016212942148797769
1742986069.7051954,0.0015693666421612072
1742986069.7061718,0.0015732131290292495
1742986069.7071478,0.0015376331254998595
1742986069.7081237,0.0014664731184410792
1742986069.7090995,0.0014078141937034362
1742986069.7100756,0.0014155071674395205
1742986069.7110517,0.0013789655421931198
1742986069.7120275,0.0013414622952297086
1742986069.7130036,0.0013856968942121935
1742986069.7139797,0.0014174304108735415
1742986069.7149558,0.0014193536543075627
1742986069.7159317,0.0013943514896652884
1742986069.7169075,0.001435701223496742
1742986069.7178836,0.0014828206876302584
1742986069.7188597,0.0015068612305555221
1742986069.7198358,0.0015837909679163656
1742986069.7208116,0.0017097634128447469
1742986069.7217877,0.0017693839592994006
1742986069.7227638,0.0017943861239416747
1742986069.7237396,0.0018097720714138432
1742986069.7247155,0.0018472753183772547
1742986069.7256916,0.0018415055880751912
1742986069.726668,0.0018241963971690016
1742986069.7276437,0.0017145715214297995
1742986069.7286196,0.001643411514371019
1742986069.7295957,0.001561673668425123
1742986069.7305717,0.0016164861062947242
1742986069.7315476,0.0016116779977096713
1742986069.7325234,0.0014222385194585943
1742986069.7334998,0.0011702936296018318
1742986069.7344759,0.0010904790270899567
1742986069.7354517,0.001091440648806967
1742986069.7364275,0.001034704967503345
1742986069.7374036,0.001020280641748187
1742986069.7383797,0.0013212682391724872
1742986069.7393556,0.0018097720714138432
1742986069.7403314,0.002162687241556713
1742986069.7413077,0.0022309623834644615
1742986069.7422838,0.002107874803687112
1742986069.7432597,0.0019347828946252139
1742986069.7442355,0.0019001645128128345
1742986069.7452116,0.0017905396370736324
1742986069.7461877,0.0017357271992040314
1742986069.7471635,0.0016616823269942195
1742986069.7481396,0.001704955304259694
1742986069.7491157,0.0016597590835601987
1742986069.7500918,0.001605908267407608
1742986069.7510676,0.0014799358224792268
1742986069.7520435,0.0014905136613663427
1742986069.7530196,0.0015587888032740915
1742986069.7539957,0.0016174477280117346
1742986069.7549717,0.00153859474721687
1742986069.7559476,0.001553019072972028
1742986069.7569237,0.0015501342078209964
1742986069.7578998,0.0014828206876302584
1742986069.7588756,0.0016809147613344305
1742986069.7598515,0.0017107250345617575
1742986069.7608275,0.0017155331431468101
1742986069.7618039,0.0015780212376143023
1742986069.7627797,0.0015664817770101758
1742986069.7637556,0.001584752589633376
1742986069.7647316,0.0015732131290292495
1742986069.7657077,0.0015520574512550176
1742986069.7666836,0.0015203239345936697
1742986069.7676594,0.0015222471780276907
1742986069.7686357,0.0015251320431787223
1742986069.7696118,0.0015107077174235642
1742986069.7705877,0.0014933985265173746
1742986069.7715635,0.0014808974441962374
1742986069.7725396,0.0014924369048003642
1742986069.7735157,0.0014991682568194376
1742986069.7744915,0.0015462877209529542
1742986069.7754676,0.0015587888032740915
1742986069.7764437,0.001570328263878218
1742986069.7774198,0.0016097547542756503
1742986069.7783957,0.0015770596158972917
1742986069.7793715,0.0015741747507462603
1742986069.7803476,0.0015395563689338807
1742986069.7813237,0.001529940151763775
1742986069.7822998,0.0015866758330673972
1742986069.7832756,0.001561673668425123
1742986069.7842517,0.0015876374547844076
1742986069.7852278,0.0016366801623519456
1742986069.7862036,0.0016684136790132934
1742986069.7871795,0.0016578358401261775
1742986069.7881556,0.0016424498926540087
1742986069.7891319,0.0015866758330673972
1742986069.7901077,0.0015289785300467646
1742986069.7910836,0.0014539720361199423
1742986069.7920597,0.0013760806770420882
1742986069.7930357,0.001338577430078677
1742986069.7940116,0.0012327990412075171
1742986069.7949874,0.0011289438957703783
1742986069.7959638,0.0011520228169786314
1742986069.7969398,0.0012703022881709284
1742986069.7979157,0.0014914752830833533
1742986069.7988915,0.0015760979941802811
1742986069.7998676,0.001646296379522051
1742986069.8008437,0.0018520834269623073
1742986069.8018196,0.0020972969647999958
1742986069.8027954,0.0018665077527174655
1742986069.8037717,0.001711686656278768
1742986069.8047478,0.0016232174583137979
1742986069.8057237,0.001676106652749378
1742986069.8066995,0.0014924369048003642
1742986069.8076756,0.0013260763477575398
1742986069.8086517,0.0013049206699833078
1742986069.8096275,0.0013693493250230145
1742986069.8106036,0.00141454554572251
1742986069.8115797,0.0016559125966921565
1742986069.8125558,0.0019318980294741825
1742986069.8135316,0.0017684223375823902
1742986069.8145075,0.001650142866390093
1742986069.8154836,0.0017203412517318628
1742986069.81646,0.001726110982033926
1742986069.8174357,0.0018703542395855078
1742986069.8184116,0.0018386207229241598
1742986069.8193877,0.0016039850239735868
1742986069.8203638,0.0015712898855952285
1742986069.8213396,0.0015212855563106803
1742986069.8223155,0.0015539806946890387
1742986069.8232915,0.001517439069442638
1742986069.8242679,0.0015068612305555221
1742986069.8252437,0.0015693666421612072
1742986069.8262196,0.0015780212376143023
1742986069.8271956,0.001481859065913248
1742986069.8281717,0.0013962747330993096
1742986069.8291476,0.001329922834625582
1742986069.8301234,0.0013751190553250774
1742986069.8310997,0.0014260850063266366
1742986069.8320758,0.0015078228522725327
1742986069.8330517,0.0015587888032740915
1742986069.8340275,0.0016097547542756503
1742986069.8350036,0.001646296379522051
1742986069.8359797,0.0016193709714457556
1742986069.8369555,0.0016299488103328715
1742986069.8379316,0.001722264495165884
1742986069.8389077,0.0018280428840370436
1742986069.8398838,0.0017193796300148522
1742986069.8408597,0.0015655201552931652
1742986069.8418355,0.001524170421461712
1742986069.8428116,0.0014905136613663427
1742986069.8437877,0.0014972450133854168
1742986069.8447638,0.0015126309608575854
1742986069.8457396,0.0014991682568194376
1742986069.8467157,0.0014991682568194376
1742986069.8476918,0.0015126309608575854
1742986069.8486676,0.0015030147436874799
1742986069.8496435,0.00148570555278129
1742986069.8506196,0.0014953217699513954
1742986069.8515959,0.0014683963618751003
1742986069.8525717,0.00143281635834571
1742986069.8535476,0.0014164687891565309
1742986069.8545237,0.0014193536543075627
1742986069.8554997,0.0014212768977415835
1742986069.8564756,0.0014337779800627209
1742986069.8574514,0.001471281227026132
1742986069.8584278,0.0014664731184410792
1742986069.8594038,0.00148570555278129
1742986069.8603797,0.001471281227026132
1742986069.8613555,0.0014424325755158158
1742986069.8623316,0.0014164687891565309
1742986069.8633077,0.00148570555278129
1742986069.8642836,0.0016155244845777134
1742986069.8652594,0.0016049466456905977
1742986069.8662357,0.001690530978504536
1742986069.8672118,0.0017107250345617575
1742986069.8681877,0.001582829346199355
1742986069.8691635,0.0015337866386318172
1742986069.8701396,0.0014453174406668474
1742986069.8711157,0.0015078228522725327
1742986069.8720915,0.0016203325931627662
1742986069.8730676,0.0017588061204122844
1742986069.8740437,0.0017674607158653791
1742986069.8750198,0.0017530363901102212
1742986069.8759956,0.0016837996264854622
1742986069.8769715,0.0016203325931627662
1742986069.8779476,0.0015405179906508911
1742986069.878924,0.0015058996088385115
1742986069.8798997,0.0015058996088385115
1742986069.8808756,0.0015232087997447015
1742986069.8818517,0.0015212855563106803
1742986069.8828278,0.0015376331254998595
1742986069.8838036,0.0015039763654044905
1742986069.8847795,0.0014664731184410792
1742986069.8857555,0.0013991595982503413
1742986069.8867319,0.0013328076997766137
1742986069.8877077,0.0012174130937353483
1742986069.8886836,0.0013020358048322761
1742986069.8896596,0.0015876374547844076
1742986069.8906357,0.0017568828769782636
1742986069.8916116,0.0015097460957065538
1742986069.8925874,0.0015741747507462603
1742986069.8935637,0.001780923419903527
1742986069.8945398,0.0018165034234329171
1742986069.8955157,0.001612639619426682
1742986069.8964915,0.0015626352901421338
1742986069.8974676,0.0015414796123679015
1742986069.8984437,0.0015337866386318172
1742986069.8994195,0.0015280169083297542
1742986069.9003956,0.001511669339140575
1742986069.9013717,0.00160879313255864
1742986069.9023478,0.001607831510841629
1742986069.9033237,0.0016472580012390613
1742986069.9042995,0.0016453347578050403
1742986069.9052756,0.0015885990765014183
1742986069.9062517,0.001529940151763775
1742986069.9072278,0.0014308931149116892
1742986069.9082036,0.0013578098644188878
1742986069.9091797,0.0013770422987590986
1742986069.9101558,0.001351078512399814
1742986069.9111316,0.0013712725684570353
1742986069.9121075,0.0015030147436874799
1742986069.9130836,0.0015539806946890387
1742986069.9140599,0.0015366715037828489
1742986069.9150357,0.0015664817770101758
1742986069.9160116,0.0015953304285204921
1742986069.9169877,0.0015943688068034815
1742986069.9179637,0.0015645585335761546
1742986069.9189396,0.001494360148234385
1742986069.9199154,0.0014558952795539631
1742986069.9208918,0.0014693579835921109
1742986069.9218678,0.0015270552866127436
1742986069.9228437,0.001602061780539566
1742986069.9238195,0.001703032060825673
1742986069.9247956,0.001825158018886012
1742986069.9257717,0.0018693926178684971
1742986069.9267476,0.0018290045057540543
1742986069.9277234,0.0016780298961833987
1742986069.9286997,0.0016289871886158611
1742986069.9296758,0.0016405266492199877
1742986069.9306517,0.001646296379522051
1742986069.9316275,0.0016251407017478189
1742986069.9326036,0.0016318720537668926
1742986069.9335797,0.0016414882709369983
1742986069.9345555,0.0016578358401261775
1742986069.9355316,0.001646296379522051
1742986069.9365077,0.0016963007088065991
1742986069.9374838,0.0016251407017478189
1742986069.9384596,0.0015453260992359438
1742986069.9394355,0.0014933985265173746
1742986069.9404116,0.0014895520396493323
1742986069.941388,0.0014616650098560266
1742986069.9423637,0.0014693579835921109
1742986069.9433396,0.0015107077174235642
1742986069.9443157,0.0015203239345936697
1742986069.9452918,0.0015193623128766593
1742986069.9462676,0.0015693666421612072
1742986069.9472435,0.0014414709537988052
1742986069.9482195,0.0012683790447369071
1742986069.9491959,0.0011347136260724416
1742986069.9501717,0.0011770249816209055
1742986069.9511476,0.0013520401341168247
1742986069.9521236,0.0013731958118910566
1742986069.9530997,0.001439547710364784
1742986069.9540756,0.0018357358577731281
1742986069.9550514,0.0019924801976458468
1742986069.9560277,0.001968439654720583
1742986069.9570038,0.0019443991117953196
1742986069.9579797,0.001991518575928836
1742986069.9589555,0.0018722774830195286
1742986069.9599316,0.0017530363901102212
1742986069.9609077,0.0017318807123359893
1742986069.9618835,0.001726110982033926
1742986069.9628596,0.001740535307789084
1742986069.9638357,0.0017328423340529997
1742986069.9648118,0.001734765577487021
1742986069.9657876,0.001736688820921042
1742986069.9667635,0.0017578444986952738
1742986069.9677396,0.0016914926002215465
1742986069.9687157,0.0016530277315411248
1742986069.9696918,0.0016472580012390613
1742986069.9706676,0.00164437313608803
1742986069.9716437,0.0016414882709369983
1742986069.9726198,0.0016289871886158611
1742986069.9735956,0.0016318720537668926
1742986069.9745715,0.0016414882709369983
1742986069.9755476,0.0016414882709369983
1742986069.9765239,0.0016366801623519456
1742986069.9774997,0.00162706394518184
1742986069.9784756,0.0016261023234648295
1742986069.9794517,0.0016241790800308085
1742986069.9804277,0.0015982152936715238
1742986069.9814036,0.0015645585335761546
1742986069.9823794,0.001504937987121501
1742986069.9833558,0.0014693579835921109
1742986069.9843318,0.0014616650098560266
1742986069.9853077,0.0014414709537988052
1742986069.9862835,0.001464549875007058
1742986069.9872596,0.0015414796123679015
1742986069.9882357,0.001643411514371019
1742986069.9892116,0.0016741834093153567
1742986069.9901874,0.001703032060825673
1742986069.9911637,0.001711686656278768
1742986069.9921398,0.001690530978504536
1742986069.9931157,0.0017164947648638205
1742986069.9940915,0.0017232261168828944
1742986069.9950676,0.0017588061204122844
1742986069.9960437,0.0015962920502375025
1742986069.9970195,0.0015982152936715238
1742986069.9979956,0.0015885990765014183
1742986069.9989717,0.0015885990765014183
1742986069.9999478,0.0016212942148797769
1742986070.0009236,0.0016395650275029768
1742986070.0018995,0.0016337952972009138
1742986070.0028756,0.0016116779977096713
1742986070.003852,0.0015780212376143023
1742986070.0048277,0.0014905136613663427
1742986070.0058036,0.0014116606805714782
1742986070.0067797,0.001336654186644656
1742986070.0077558,0.0013020358048322761
1742986070.0087316,0.0012664558013028861
1742986070.0097075,0.0013135752654364029
1742986070.0106835,0.0014693579835921109
1742986070.0116599,0.001559750424991102
1742986070.0126357,0.0016972623305236097
1742986070.0136116,0.0017511131466762002
1742986070.0145876,0.0017982326108097167
1742986070.0155637,0.0018876634304916973
1742986070.0165396,0.0017828466633375481
1742986070.0175154,0.00167995313961742
1742986070.0184917,0.0016789915179004095
1742986070.0194678,0.0017434201729401159
1742986070.0204437,0.0016722601658813356
1742986070.0214195,0.0015539806946890387
1742986070.0223956,0.0015943688068034815
1742986070.0233717,0.00164437313608803
1742986070.0243475,0.0016655288138622618
1742986070.0253236,0.0016366801623519456
1742986070.0262997,0.0015982152936715238
1742986070.0272758,0.0015972536719545134
1742986070.0282516,0.0015655201552931652
1742986070.0292275,0.0015030147436874799
1742986070.0302036,0.001462626631573037
1742986070.0311797,0.0014308931149116892
1742986070.0321558,0.0014155071674395205
1742986070.0331316,0.0014424325755158158
1742986070.0341077,0.0014789742007622162
1742986070.0350838,0.0015078228522725327
1742986070.0360596,0.0016001385371055448
1742986070.0370355,0.0017386120643550632
1742986070.0380116,0.0017616909855633163
1742986070.0389879,0.0017203412517318628
1742986070.0399637,0.0017790001764695059
1742986070.0409396,0.0018443904532262228
1742986070.0419157,0.0018040023411117802
1742986070.0428917,0.0017443817946571263
1742986070.0438676,0.0017357271992040314
1742986070.0448434,0.0017184180082978418
1742986070.0458198,0.0017068785476937152
1742986070.0467958,0.0016982239522406203
1742986070.0477717,0.0016780298961833987
1742986070.0487475,0.001660720705277209
1742986070.0497236,0.0016280255668988505
1742986070.0506997,0.0016001385371055448
1742986070.0516756,0.0015818677244823446
1742986070.0526514,0.0015578271815570807
1742986070.0536277,0.0015270552866127436
1742986070.0546038,0.0015318633951977962
1742986070.0555797,0.0015510958295380072
1742986070.0565555,0.0015405179906508911
1742986070.0575316,0.001529940151763775
1742986070.0585077,0.001561673668425123
1742986070.0594838,0.0016289871886158611
1742986070.0604596,0.0016809147613344305
1742986070.0614357,0.001703032060825673
1742986070.0624118,0.0017251493603169155
1742986070.0633876,0.001780923419903527
1742986070.0643635,0.0018241963971690016
1742986070.0653396,0.0017616909855633163
1742986070.066316,0.0017559212552612528
1742986070.0672917,0.0017395736860720736
1742986070.0682676,0.0017338039557700106
1742986070.0692437,0.0016982239522406203
1742986070.0702198,0.0016357185406349348
1742986070.0711956,0.001602061780539566
1742986070.0721714,0.0016164861062947242
1742986070.0731475,0.0016703369224473144
1742986070.0741239,0.0016232174583137979
1742986070.0750997,0.0015655201552931652
1742986070.0760756,0.001517439069442638
1742986070.0770516,0.0014914752830833533
1742986070.0780277,0.0015087844739895431
1742986070.0790036,0.001511669339140575
1742986070.0799794,0.0015097460957065538
1742986070.0809557,0.0015635969118591442
1742986070.0819318,0.0016030234022565764
1742986070.0829077,0.0016280255668988505
1742986070.0838835,0.001646296379522051
1742986070.0848596,0.0016636055704282407
1742986070.0858357,0.0016578358401261775
1742986070.0868115,0.00162706394518184
1742986070.0877876,0.0015818677244823446
1742986070.0887637,0.0014741660921771635
1742986070.0897398,0.0013981979765333304
1742986070.0907156,0.0013837736507781725
1742986070.0916915,0.0013578098644188878
1742986070.0926676,0.0012876114790771182
1742986070.0936437,0.0012683790447369071
1742986070.0946198,0.0012058736331312218
1742986070.0955956,0.0012174130937353483
1742986070.0965717,0.0013472320255317716
1742986070.0975478,0.0014808974441962374
1742986070.0985236,0.0016203325931627662
1742986070.0994995,0.0017520747683932106
1742986070.1004755,0.0019636315461355304
1742986070.1014519,0.002084795882478859
1742986070.1024277,0.0021338385900463966
1742986070.1034036,0.0020559472309685423
1742986070.1043797,0.0019068958648319082
1742986070.1053557,0.0018626612658494233
1742986070.1063316,0.0017395736860720736
1742986070.1073074,0.0016895693567875252
1742986070.1082838,0.0016703369224473144
1742986070.1092598,0.0016655288138622618
1742986070.1102357,0.0016597590835601987
1742986070.1112115,0.0016751450310323673
1742986070.1121876,0.0016895693567875252
1742986070.1131637,0.0017626526072803265
1742986070.1141396,0.0017886163936396114
1742986070.1151154,0.0017713072027334216
1742986070.1160917,0.001728034225467947
1742986070.1170678,0.0016866844916364938
1742986070.1180437,0.0016645671921452514
1742986070.1190195,0.0016664904355792722
1742986070.1199956,0.001650142866390093
1742986070.1209717,0.0016357185406349348
1742986070.1219478,0.001643411514371019
1742986070.1229236,0.0016789915179004095
1742986070.1238997,0.0017790001764695059
1742986070.1248758,0.0018097720714138432
1742986070.1258516,0.0017232261168828944
1742986070.1268275,0.0016684136790132934
1742986070.1278036,0.001673221787598346
1742986070.12878,0.0016770682744663883
1742986070.1297557,0.0016722601658813356
1742986070.1307316,0.0017059169259767048
1742986070.1317077,0.0017193796300148522
1742986070.1326838,0.0016405266492199877
1742986070.1336596,0.0016174477280117346
1742986070.1346354,0.0016472580012390613
1742986070.1356115,0.0016741834093153567
1742986070.1365879,0.0016587974618431879
1742986070.1375637,0.0016587974618431879
1742986070.1385396,0.0016491812446730826
1742986070.1395156,0.0016645671921452514
1742986070.1404917,0.0016684136790132934
1742986070.1414676,0.0016597590835601987
1742986070.1424434,0.0016424498926540087
1742986070.1434197,0.0016347569189179242
1742986070.1443958,0.0016328336754839034
1742986070.1453717,0.0016280255668988505
1742986070.1463475,0.0016318720537668926
1742986070.1473236,0.0016309104320498822
1742986070.1482997,0.0016318720537668926
1742986070.1492755,0.0016232174583137979
1742986070.1502516,0.0016136012411436926
1742986070.1512277,0.0016068698891246187
1742986070.1522038,0.001602061780539566
1742986070.1531796,0.0015780212376143023
1742986070.1541555,0.00155590393812306
1742986070.1551316,0.0015164774477256276
1742986070.1561077,0.0014501255492519
1742986070.1570837,0.0013751190553250774
1742986070.1580596,0.0013039590482662974
1742986070.1590357,0.001245300123528654
1742986070.1600118,0.001186641198791011
1742986070.1609876,0.0011626006558657475
1742986070.1619635,0.0012472233669626753
1742986070.1629395,0.0014683963618751003
1742986070.1639159,0.0017713072027334216
1742986070.1648917,0.00190978072998294
1742986070.1658676,0.0019694012764375937
1742986070.1668437,0.0019251666774551086
1742986070.1678197,0.0019126655951339716
1742986070.1687956,0.0018453520749432334
1742986070.1697714,0.0018116953148478645
1742986070.1707478,0.0017713072027334216
1742986070.1717238,0.0017059169259767048
1742986070.1726997,0.0016357185406349348
1742986070.1736755,0.0016809147613344305
1742986070.1746516,0.0016982239522406203
1742986070.1756277,0.0016972623305236097
1742986070.1766036,0.0017376504426380526
1742986070.1775794,0.0017482282815251685
1742986070.1785557,0.001734765577487021
1742986070.1795318,0.0017299574689019683
1742986070.1805077,0.0016943774653725783
1742986070.1814835,0.0016366801623519456
1742986070.1824596,0.0016184093497287452
1742986070.1834357,0.0015876374547844076
1742986070.1844118,0.0015366715037828489
1742986070.1853876,0.0014799358224792268
1742986070.1863637,0.001458780144704995
1742986070.1873398,0.0014914752830833533
1742986070.1883156,0.0014972450133854168
1742986070.1892915,0.0014991682568194376
1742986070.1902676,0.0015568655598400703
1742986070.191244,0.0016347569189179242
1742986070.1922197,0.0017511131466762002
1742986070.1931956,0.001846313696660244
1742986070.1941717,0.001833812614339107
1742986070.1951478,0.0018107336931308538
1742986070.1961236,0.001728034225467947
1742986070.1970994,0.0016886077350705148
1742986070.1980755,0.0016886077350705148
1742986070.1990519,0.0017193796300148522
1742986070.2000277,0.0017376504426380526
1742986070.2010036,0.0017011088173916518
1742986070.2019796,0.0016549509749751456
1742986070.2029557,0.0016414882709369983
1742986070.2039316,0.00162706394518184
1742986070.2049074,0.0016203325931627662
1742986070.2058837,0.0016511044881071036
1742986070.2068598,0.0017251493603169155
1742986070.2078357,0.0017722688244504322
1742986070.2088115,0.0017915012587906432
1742986070.2097876,0.0017732304461674428
1742986070.2107637,0.0017328423340529997
1742986070.2117395,0.001692454221938557
1742986070.2127156,0.0016943774653725783
1742986070.2136917,0.0016914926002215465
1742986070.2146678,0.0016616823269942195
1742986070.2156436,0.0016626439487112301
1742986070.2166195,0.0016655288138622618
1742986070.2175956,0.0017011088173916518
1742986070.2185717,0.0017741920678844532
1742986070.2195477,0.001747266659808158
1742986070.2205236,0.0016424498926540087
1742986070.2214997,0.0016789915179004095
1742986070.2224758,0.0016664904355792722
1742986070.2234516,0.001643411514371019
1742986070.2244275,0.0016184093497287452
1742986070.2254035,0.0015982152936715238
1742986070.2263799,0.0015905223199354395
1742986070.2273557,0.001549172586103986
1742986070.2283316,0.0015251320431787223
1742986070.2293077,0.0015039763654044905
1742986070.2302837,0.0014991682568194376
1742986070.2312596,0.0014828206876302584
1742986070.2322354,0.0014780125790452058
1742986070.2332118,0.0014982066351024272
1742986070.2341878,0.0015251320431787223
1742986070.2351637,0.001517439069442638
1742986070.2361395,0.0015097460957065538
1742986070.2371156,0.001526093664895733
1742986070.2380917,0.0015020531219704695
1742986070.2390676,0.0015030147436874799
1742986070.2400434,0.0015424412340849121
1742986070.2410197,0.0015770596158972917
1742986070.2419958,0.0015741747507462603
1742986070.2429717,0.0015251320431787223
1742986070.2439475,0.0016049466456905977
1742986070.2449236,0.0016337952972009138
1742986070.2458997,0.001660720705277209
1742986070.2468758,0.0017001471956746414
1742986070.2478516,0.0016655288138622618
1742986070.2488277,0.0016664904355792722
1742986070.2498038,0.0016578358401261775
1742986070.2507796,0.0016712985441643252
1742986070.2517555,0.0016703369224473144
1742986070.2527316,0.0017328423340529997
1742986070.253708,0.0017991942325267273
1742986070.2546837,0.0017866931502055902
1742986070.2556596,0.0017241877385999048
1742986070.2566357,0.001660720705277209
1742986070.2576118,0.0016203325931627662
1742986070.2585876,0.0015876374547844076
1742986070.2595634,0.0016357185406349348
1742986070.2605395,0.0016626439487112301
1742986070.2615159,0.001660720705277209
1742986070.2624917,0.0016405266492199877
1742986070.2634676,0.0016809147613344305
1742986070.2644436,0.0016549509749751456
1742986070.2654197,0.0016222558365967873
1742986070.2663956,0.0015943688068034815
1742986070.2673714,0.0015539806946890387
1742986070.2683477,0.0014539720361199423
1742986070.2693238,0.0014135839240054992
1742986070.2702997,0.0014203152760245731
1742986070.2712755,0.0014539720361199423
1742986070.2722516,0.001534748260348828
1742986070.2732277,0.0016655288138622618
1742986070.2742035,0.0017607293638463057
1742986070.2751796,0.001837659101207149
1742986070.2761557,0.001854968292113339
1742986070.2771318,0.001831889370905086
1742986070.2781076,0.001823234775451991
1742986070.2790835,0.0018165034234329171
1742986070.2800596,0.0017799617981865167
1742986070.2810357,0.0017434201729401159
1742986070.2820117,0.0016847612482024726
1742986070.2829876,0.0016712985441643252
1742986070.2839637,0.0016626439487112301
1742986070.2849398,0.0016578358401261775
1742986070.2859156,0.0016482196229560722
1742986070.2868915,0.00162706394518184
1742986070.2878675,0.0015424412340849121
1742986070.2888439,0.0014837823093472688
1742986070.2898197,0.001395313111382299
1742986070.2907956,0.0013241531043235186
1742986070.2917717,0.0013020358048322761
1742986070.2927477,0.0013116520220023816
1742986070.2937236,0.0014174304108735415
1742986070.2946994,0.0016212942148797769
1742986070.2956758,0.0017588061204122844
1742986070.2966518,0.001793424502224664
1742986070.2976277,0.0018049639628287906
1742986070.2986035,0.0017857315284885798
1742986070.2995796,0.0017972709890927063
1742986070.3005557,0.0017857315284885798
1742986070.3015316,0.0017741920678844532
1742986070.3025076,0.0017434201729401159
1742986070.3034837,0.0017616909855633163
1742986070.3044598,0.001747266659808158
1742986070.3054357,0.0017145715214297995
1742986070.3064115,0.0016953390870895887
1742986070.3073876,0.0016895693567875252
1742986070.3083637,0.0016684136790132934
1742986070.3093398,0.0016424498926540087
1742986070.3103156,0.0016299488103328715
1742986070.3112917,0.0015972536719545134
1742986070.3122678,0.0015809061027653338
1742986070.3132436,0.00159148394165245
1742986070.3142195,0.001582829346199355
1742986070.3151956,0.0015866758330673972
1742986070.316172,0.001584752589633376
1742986070.3171477,0.0015962920502375025
1742986070.3181236,0.0016222558365967873
1742986070.3190997,0.0016203325931627662
1742986070.3200758,0.00160879313255864
1742986070.3210516,0.0016164861062947242
1742986070.3220274,0.0016280255668988505
1742986070.3230035,0.0016222558365967873
1742986070.3239799,0.0016039850239735868
1742986070.3249557,0.0015972536719545134
1742986070.3259315,0.0016107163759926607
1742986070.3269076,0.0015857142113503868
1742986070.3278837,0.0014837823093472688
1742986070.3288596,0.0013885817593632251
1742986070.3298354,0.001365502838154972
1742986070.3308117,0.0013356925649276451
1742986070.3317878,0.0013183833740214555
1742986070.3327637,0.001384735272495183
1742986070.3337395,0.0015741747507462603
1742986070.3347156,0.0017097634128447469
1742986070.3356917,0.0018049639628287906
1742986070.3366675,0.0017866931502055902
1742986070.3376436,0.0017482282815251685
1742986070.3386197,0.001699185573957631
1742986070.3395958,0.0016414882709369983
1742986070.3405716,0.0015741747507462603
1742986070.3415475,0.0014905136613663427
1742986070.3425236,0.0014568569012709737
1742986070.3434997,0.0015107077174235642
1742986070.3444757,0.0015674433987271864
1742986070.3454516,0.0015770596158972917
1742986070.3464277,0.0015741747507462603
1742986070.3474038,0.0016914926002215465
1742986070.3483796,0.0017799617981865167
1742986070.3493555,0.0018165034234329171
1742986070.3503315,0.0018049639628287906
1742986070.3513079,0.0017568828769782636
1742986070.3522837,0.0016914926002215465
1742986070.3532596,0.0016895693567875252
1742986070.3542356,0.0016626439487112301
1742986070.3552117,0.0016511044881071036
1742986070.3561876,0.0016539893532581352
1742986070.3571634,0.001669375300730304
1742986070.3581398,0.0016636055704282407
1742986070.3591158,0.001667452057296283
1742986070.3600917,0.0016712985441643252
1742986070.3610675,0.001643411514371019
1742986070.3620436,0.0015674433987271864
1742986070.3630197,0.0014578185229879843
1742986070.3639956,0.0013876201376462147
1742986070.3649716,0.0013606947295699194
1742986070.3659477,0.0013808887856271409
1742986070.3669238,0.0013924282462312674
1742986070.3678997,0.0013597331078529092
1742986070.3688755,0.001435701223496742
1742986070.3698516,0.001570328263878218
1742986070.3708277,0.0016097547542756503
1742986070.3718038,0.0015462877209529542
1742986070.3727796,0.0015289785300467646
1742986070.3737557,0.0015376331254998595
1742986070.3747318,0.001547249342669965
1742986070.3757076,0.0016539893532581352
1742986070.3766835,0.0017799617981865167
1742986070.3776596,0.0018828553219066447
1742986070.378636,0.0018915099173597396
1742986070.3796117,0.001879970456755613
1742986070.3805876,0.0018290045057540543
1742986070.3815637,0.0017578444986952738
1742986070.3825397,0.0017203412517318628
1742986070.3835156,0.001681876383051441
1742986070.3844914,0.0016655288138622618
1742986070.3854675,0.0016587974618431879
1742986070.3864439,0.0016280255668988505
1742986070.3874197,0.0016261023234648295
1742986070.3883955,0.0016318720537668926
1742986070.3893716,0.0016318720537668926
1742986070.3903477,0.0016212942148797769
1742986070.3913236,0.0016241790800308085
1742986070.3922994,0.0016232174583137979
1742986070.3932757,0.0016347569189179242
1742986070.3942518,0.0016414882709369983
1742986070.3952277,0.0016491812446730826
1742986070.3962035,0.0016328336754839034
1742986070.3971796,0.0016395650275029768
1742986070.3981557,0.0016289871886158611
1742986070.3991315,0.0016289871886158611
1742986070.4001076,0.001605908267407608
1742986070.4010837,0.0015895606982184289
1742986070.4020598,0.0015135925825745958
1742986070.4030356,0.0014482023058178788
1742986070.4040115,0.0013789655421931198
1742986070.4049876,0.001338577430078677
1742986070.4059637,0.0013337693214936243
1742986070.4069397,0.0013731958118910566
1742986070.4079156,0.00164437313608803
1742986070.4088917,0.0017655374724313583
1742986070.4098678,0.0017184180082978418
1742986070.4108436,0.0016261023234648295
1742986070.4118195,0.001602061780539566
1742986070.4127955,0.001584752589633376
1742986070.4137719,0.001607831510841629
1742986070.4147477,0.001605908267407608
1742986070.4157236,0.0016318720537668926
1742986070.4166996,0.001605908267407608
1742986070.4176757,0.0015780212376143023
1742986070.4186516,0.0015318633951977962
1742986070.4196274,0.0015251320431787223
1742986070.4206038,0.0015251320431787223
1742986070.4215798,0.001553019072972028
1742986070.4225557,0.00159148394165245
1742986070.4235315,0.00164437313608803
1742986070.4245076,0.0016174477280117346
1742986070.4254837,0.0015895606982184289
1742986070.4264596,0.0015953304285204921
1742986070.4274356,0.0015732131290292495
1742986070.4284117,0.0015655201552931652
1742986070.4293878,0.001553019072972028
1742986070.4303637,0.0014972450133854168
1742986070.4313395,0.00136165635128693
1742986070.4323156,0.0012895347225111392
1742986070.4332917,0.0012049120114142112
1742986070.4342678,0.0012164514720183377
1742986070.4352436,0.001245300123528654
1742986070.4362197,0.0013462704038147612
1742986070.4371958,0.0015078228522725327
1742986070.4381716,0.0016482196229560722
1742986070.4391475,0.0017251493603169155
1742986070.4401236,0.0016876461133535044
1742986070.4411,0.0016337952972009138
1742986070.4420757,0.0015895606982184289
1742986070.4430516,0.0016097547542756503
1742986070.4440277,0.0016299488103328715
1742986070.4450037,0.0016453347578050403
1742986070.4459796,0.0016309104320498822
1742986070.4469554,0.0016366801623519456
1742986070.4479318,0.0016424498926540087
1742986070.4489079,0.0016068698891246187
1742986070.4498837,0.0015876374547844076
1742986070.4508595,0.0015885990765014183
1742986070.4518356,0.0015741747507462603
1742986070.4528117,0.0015607120467081125
1742986070.4537876,0.0015462877209529542
1742986070.4547634,0.001553019072972028
1742986070.4557397,0.0015635969118591442
1742986070.4567158,0.0015568655598400703
1742986070.4576917,0.0015405179906508911
1742986070.4586675,0.0015501342078209964
1742986070.4596436,0.001547249342669965
1742986070.4606197,0.001549172586103986
1742986070.4615955,0.0015664817770101758
1742986070.4625716,0.00155590393812306
1742986070.4635477,0.0015107077174235642
1742986070.4645238,0.0014924369048003642
1742986070.4654996,0.0014808974441962374
1742986070.4664755,0.001464549875007058
1742986070.4674516,0.0014558952795539631
1742986070.4684277,0.0014828206876302584
1742986070.4694037,0.001494360148234385
1742986070.4703796,0.0015145542042916064
1742986070.4713557,0.0015126309608575854
1742986070.4723318,0.0015078228522725327
1742986070.4733076,0.0014847439310642797
1742986070.4742835,0.0014135839240054992
1742986070.4752595,0.0013741574336080672
1742986070.4762359,0.0014318547366286996
1742986070.4772117,0.0014837823093472688
1742986070.4781876,0.001494360148234385
1742986070.4791636,0.0015674433987271864
1742986070.4801397,0.0015905223199354395
1742986070.4811156,0.0016039850239735868
1742986070.4820914,0.0015924455633694603
1742986070.4830678,0.0015607120467081125
1742986070.4840438,0.0015280169083297542
1742986070.4850197,0.0014789742007622162
1742986070.4859955,0.0014549336578369527
1742986070.4869716,0.0014433941972328262
1742986070.4879477,0.001435701223496742
1742986070.4889235,0.0014299314931946786
1742986070.4898996,0.0014722428487431423
1742986070.4908757,0.0015001298785364485
1742986070.4918518,0.001529940151763775
1742986070.4928277,0.0015501342078209964
1742986070.4938035,0.001515515826008617
1742986070.4947796,0.0014991682568194376
1742986070.4957557,0.001488590417932322
1742986070.4967318,0.0014655114967240688
1742986070.4977076,0.0014491639275348897
1742986070.4986837,0.00148570555278129
1742986070.4996598,0.0015337866386318172
1742986070.5006356,0.0015549423164060493
1742986070.5016115,0.001526093664895733
1742986070.5025876,0.0014933985265173746
1742986070.503564,0.0014837823093472688
1742986070.5045397,0.0014991682568194376
1742986070.5055156,0.0015270552866127436
1742986070.5064917,0.0015510958295380072
1742986070.5074677,0.0015280169083297542
1742986070.5084436,0.0014982066351024272
1742986070.5094194,0.0014799358224792268
1742986070.5103958,0.001464549875007058
1742986070.5113719,0.0014433941972328262
1742986070.5123477,0.0014337779800627209
1742986070.5133235,0.001405890950269415
1742986070.5142996,0.00139723635481632
1742986070.5152757,0.0014078141937034362
1742986070.5162516,0.0014905136613663427
1742986070.5172274,0.001529940151763775
1742986070.5182037,0.001605908267407608
1742986070.5191798,0.0016068698891246187
1742986070.5201557,0.00159148394165245
1742986070.5211315,0.0015934071850864711
1742986070.5221076,0.0014953217699513954
1742986070.5230837,0.0014385860886477735
1742986070.5240595,0.0013799271639101305
1742986070.5250356,0.0013587714861358982
1742986070.5260117,0.0013164601305874343
1742986070.5269878,0.0012587628275668018
1742986070.5279636,0.0012231828240374116
1742986070.5289395,0.0012549163406987596
1742986070.5299156,0.0013020358048322761
1742986070.5308917,0.0013462704038147612
1742986070.5318677,0.0014433941972328262
1742986070.5328436,0.0015501342078209964
1742986070.5338197,0.0016616823269942195
1742986070.5347958,0.0017847699067715694
1742986070.5357716,0.0017991942325267273
1742986070.5367475,0.0017059169259767048
1742986070.5377235,0.0016405266492199877
1742986070.5386999,0.0015885990765014183
1742986070.5396757,0.001570328263878218
1742986070.5406516,0.0015693666421612072
1742986070.5416276,0.0015712898855952285
1742986070.5426037,0.0015626352901421338
1742986070.5435796,0.001553019072972028
1742986070.5445554,0.0015482109643869754
1742986070.5455317,0.0015251320431787223
1742986070.5465078,0.0015020531219704695
1742986070.5474837,0.00148570555278129
1742986070.5484595,0.0014732044704601531
1742986070.5494356,0.0014607033881390158
1742986070.5504117,0.0014558952795539631
1742986070.5513875,0.0014607033881390158
1742986070.5523636,0.0014866671744983007
1742986070.5533397,0.0014664731184410792
1742986070.5543158,0.0014433941972328262
1742986070.5552917,0.0014116606805714782
1742986070.5562675,0.0013818504073441513
1742986070.5572436,0.0013405006735126982
1742986070.5582197,0.0013164601305874343
1742986070.5591958,0.0013174217523044451
1742986070.5601716,0.0013520401341168247
1742986070.5611477,0.001395313111382299
1742986070.5621238,0.0014155071674395205
1742986070.5630996,0.0014674347401580896
1742986070.5640755,0.0014616650098560266
1742986070.5650516,0.0014837823093472688
1742986070.5660279,0.0014597417664220054
1742986070.5670037,0.0014001212199673517
1742986070.5679796,0.0013712725684570353
1742986070.5689557,0.0014010828416843623
1742986070.5699317,0.0014453174406668474
1742986070.5709076,0.0014703196053091215
1742986070.5718834,0.001471281227026132
1742986070.5728598,0.0014982066351024272
1742986070.5738358,0.0015135925825745958
1742986070.5748117,0.0015232087997447015
1742986070.5757875,0.0015087844739895431
1742986070.5767636,0.001487628796215311
1742986070.5777397,0.0014895520396493323
1742986070.5787156,0.0014837823093472688
1742986070.5796914,0.0014664731184410792
1742986070.5806677,0.001462626631573037
1742986070.5816438,0.0014607033881390158
1742986070.5826197,0.0014722428487431423
1742986070.5835955,0.0014953217699513954
1742986070.5845716,0.001517439069442638
1742986070.5855477,0.0014933985265173746
1742986070.5865235,0.0014808974441962374
1742986070.5874996,0.0014549336578369527
1742986070.5884757,0.0014501255492519
1742986070.5894518,0.0014491639275348897
1742986070.5904276,0.0014539720361199423
1742986070.5914035,0.0014597417664220054
1742986070.5923796,0.001452048792685921
1742986070.593356,0.001439547710364784
1742986070.5943317,0.0014030060851183835
1742986070.5953076,0.0013635795947209513
1742986070.5962837,0.0013405006735126982
1742986070.5972598,0.0013347309432106347
1742986070.5982356,0.0013981979765333304
1742986070.5992115,0.0014299314931946786
1742986070.6001875,0.0014789742007622162
1742986070.6011639,0.001504937987121501
1742986070.6021397,0.0015462877209529542
1742986070.6031156,0.0015164774477256276
1742986070.6040916,0.0014607033881390158
1742986070.6050677,0.0014193536543075627
1742986070.6060436,0.0013818504073441513
1742986070.6070194,0.0013703109467400247
1742986070.6079957,0.0013597331078529092
1742986070.6089718,0.0013799271639101305
1742986070.6099477,0.0014155071674395205
1742986070.6109235,0.0014722428487431423
1742986070.6118996,0.0015337866386318172
1742986070.6128757,0.001582829346199355
1742986070.6138515,0.00162706394518184
1742986070.6148276,0.0016280255668988505
1742986070.6158037,0.0015895606982184289
1742986070.6167798,0.0015520574512550176
1742986070.6177557,0.0015395563689338807
1742986070.6187315,0.001515515826008617
1742986070.6197076,0.0014837823093472688
1742986070.6206837,0.0014453174406668474
1742986070.6216598,0.0014337779800627209
1742986070.6226356,0.0014607033881390158
1742986070.6236117,0.0014558952795539631
1742986070.6245878,0.0014760893356111845
1742986070.6255636,0.0015145542042916064
1742986070.6265395,0.0015443644775189334
1742986070.6275156,0.0015318633951977962
1742986070.6284919,0.001481859065913248
1742986070.6294677,0.0014558952795539631
1742986070.6304436,0.0014232001411756047
1742986070.6314197,0.0014280082497606574
1742986070.6323957,0.0014135839240054992
1742986070.6333716,0.0014222385194585943
1742986070.6343474,0.0014674347401580896
1742986070.6353238,0.0015193623128766593
1742986070.6362998,0.0015434028558019227
1742986070.6372757,0.00155590393812306
1742986070.6382515,0.0015193623128766593
1742986070.6392276,0.0015126309608575854
1742986070.6402037,0.0015414796123679015
1742986070.6411796,0.0015770596158972917
1742986070.6421554,0.001570328263878218
1742986070.6431317,0.0015693666421612072
1742986070.6441078,0.0015607120467081125
1742986070.6450837,0.0015693666421612072
1742986070.6460595,0.0015434028558019227
1742986070.6470356,0.0015520574512550176
1742986070.6480117,0.0015501342078209964
1742986070.6489875,0.0015289785300467646
1742986070.6499636,0.0015039763654044905
1742986070.6509397,0.001494360148234385
1742986070.6519158,0.001488590417932322
1742986070.6528916,0.0014808974441962374
1742986070.6538675,0.0014635882532900476
1742986070.6548436,0.0014578185229879843
1742986070.65582,0.0014674347401580896
1742986070.6567957,0.0014799358224792268
1742986070.6577716,0.0014895520396493323
1742986070.6587477,0.0014847439310642797
1742986070.6597238,0.0014789742007622162
1742986070.6606996,0.0014693579835921109
1742986070.6616755,0.0014770509573281954
1742986070.6626515,0.0014914752830833533
1742986070.6636279,0.0015020531219704695
1742986070.6646037,0.0015039763654044905
1742986070.6655796,0.0014991682568194376
1742986070.6665556,0.0015135925825745958
1742986070.6675317,0.0015232087997447015
1742986070.6685076,0.00153859474721687
1742986070.6694834,0.0015655201552931652
1742986070.6704597,0.0015809061027653338
1742986070.6714358,0.0015799444810483234
1742986070.6724117,0.0015809061027653338
1742986070.6733875,0.0015943688068034815
1742986070.6743636,0.0016049466456905977
1742986070.6753397,0.001605908267407608
1742986070.6763155,0.0016049466456905977
1742986070.6772916,0.001602061780539566
1742986070.6782677,0.001605908267407608
1742986070.6792438,0.0016030234022565764
1742986070.6802197,0.0015953304285204921
1742986070.6811955,0.0015953304285204921
1742986070.6821716,0.0015866758330673972
1742986070.6831477,0.0015760979941802811
1742986070.6841238,0.0015751363724632707
1742986070.6850996,0.0015684050204441968
1742986070.6860757,0.0015741747507462603
1742986070.6870518,0.001572251507312239
1742986070.6880276,0.0015578271815570807
1742986070.6890035,0.0015462877209529542
1742986070.6899796,0.001529940151763775
1742986070.6909559,0.0015318633951977962
1742986070.6919317,0.0015482109643869754
1742986070.6929076,0.001547249342669965
1742986070.6938837,0.00153859474721687
1742986070.6948597,0.001561673668425123
1742986070.6958356,0.001572251507312239
1742986070.6968114,0.0016039850239735868
1742986070.6977878,0.001605908267407608
1742986070.6987638,0.0016309104320498822
1742986070.6997397,0.0016395650275029768
1742986070.7007155,0.0016847612482024726
1742986070.7016916,0.0017241877385999048
1742986070.7026677,0.0017309190906189787
1742986070.7036436,0.0017164947648638205
1742986070.7046194,0.0016943774653725783
1742986070.7055957,0.001690530978504536
1742986070.7065718,0.0016491812446730826
1742986070.7075477,0.0016212942148797769
1742986070.7085235,0.0015934071850864711
1742986070.7094996,0.0015760979941802811
1742986070.7104757,0.001582829346199355
1742986070.7114515,0.001612639619426682
1742986070.7124276,0.0016453347578050403
1742986070.7134037,0.0016828380047684518
1742986070.7143798,0.0017107250345617575
1742986070.7153556,0.0017193796300148522
1742986070.7163315,0.0017020704391086626
1742986070.7173076,0.001643411514371019
