1743758790.6180115,0.0020089479695496524
1743758790.6189876,0.0020089479695496524
1743758790.6199634,0.0020089479695496524
1743758790.6209393,0.0020089479695496524
1743758790.6219153,0.0020089479695496524
1743758790.6228914,0.0020089479695496524
1743758790.6238673,0.0020089479695496524
1743758790.6248434,0.0020089479695496524
1743758790.6258194,0.0020087075641203995
1743758790.6267955,0.002009188374978905
1743758790.6277714,0.002005822698969368
1743758790.6287472,0.002009548983122784
1743758790.6297233,0.0020139964835639576
1743758790.6306996,0.0020108712129836732
1743758790.6316755,0.0020120732401299364
1743758790.6326513,0.0020097893885520366
1743758790.6336274,0.0020129146591323205
1743758790.6346035,0.0020148379025663418
1743758790.6355793,0.002010751010269047
1743758790.6365552,0.002008106550547268
1743758790.6375313,0.0020136358754200786
1743758790.6385076,0.0020061833071132467
1743758790.6394835,0.002002096414815952
1743758790.6404593,0.002004620671823105
1743758790.6414354,0.0020117126319860574
1743758790.6424115,0.0020078661451180153
1743758790.6433873,0.002011832834700684
1743758790.6443632,0.0020155591188541
1743758790.6453395,0.002020968241012284
1743758790.6463156,0.0020275793903167315
1743758790.6472914,0.002028541012033742
1743758790.6482673,0.0020210884437269106
1743758790.6492434,0.0020257763495973367
1743758790.6502194,0.002028541012033742
1743758790.6511953,0.0020257763495973367
1743758790.6521714,0.002020247024724526
1743758790.6531475,0.002017241956858868
1743758790.6541235,0.0020144772944224627
1743758790.6550994,0.0020185641867197577
1743758790.6560752,0.0020212086464415366
1743758790.6570513,0.0020224106735877998
1743758790.6580274,0.0020237329034486894
1743758790.6590035,0.002021449051870789
1743758790.6599793,0.0020182035785758787
1743758790.6609554,0.0020224106735877998
1743758790.6619315,0.0020252955387388316
1743758790.6629074,0.0020298632418946313
1743758790.6638832,0.002029622836465379
1743758790.6648593,0.002020487430153779
1743758790.6658356,0.0020182035785758787
1743758790.6668115,0.002021689457300042
1743758790.6677873,0.002020607632868405
1743758790.6687634,0.0020143570917078367
1743758790.6697395,0.0020141166862785837
1743758790.6707153,0.002008106550547268
1743758790.6716912,0.0020023368202452046
1743758790.6726675,0.002004380266393852
1743758790.6736436,0.00200281763110371
1743758790.6746194,0.0020006539822404364
1743758790.6755953,0.0020031782392475887
1743758790.6765714,0.0020059429016839945
1743758790.6775475,0.0020148379025663418
1743758790.6785233,0.002028541012033742
1743758790.6794991,0.0020335895260480473
1743758790.6804755,0.002029382431036126
1743758790.6814516,0.0020254157414534577
1743758790.6824274,0.0020260167550265893
1743758790.6834033,0.0020230116871609314
1743758790.6843793,0.002019766213866021
1743758790.6853554,0.002019405605722142
1743758790.6863315,0.0020161601324272314
1743758790.6873074,0.0020157995242833524
1743758790.6882834,0.0020182035785758787
1743758790.6892595,0.0020191652002928893
1743758790.6902354,0.002017963173146626
1743758790.6912112,0.0020220500654439207
1743758790.6921873,0.0020215692545854157
1743758790.6931636,0.002023973308877942
1743758790.6941395,0.0020267379713143473
1743758790.6951153,0.0020295026337507527
1743758790.6960914,0.002023492498019437
1743758790.6970675,0.002017722767717373
1743758790.6980433,0.0020136358754200786
1743758790.6990192,0.0020139964835639576
1743758790.6999953,0.0020071449288302577
1743758790.7009716,0.002010029793981289
1743758790.7019475,0.0020090681722642785
1743758790.7029233,0.0020069045234010047
1743758790.7038994,0.002010751010269047
1743758790.7048755,0.002013395469990826
1743758790.7058513,0.0020132752672761996
1743758790.7068272,0.0020182035785758787
1743758790.7078035,0.0020210884437269106
1743758790.7087796,0.002021449051870789
1743758790.7097554,0.0020183237812905048
1743758790.7107313,0.0020144772944224627
1743758790.7117074,0.0020195258084367684
1743758790.7126834,0.002021689457300042
1743758790.7136593,0.0020145974971370892
1743758790.7146354,0.0020136358754200786
1743758790.7156115,0.0020113520238421788
1743758790.7165875,0.002008106550547268
1743758790.7175634,0.002006303509827873
1743758790.7185392,0.0020077459424033893
1743758790.7195153,0.0020149581052809683
1743758790.7204914,0.0020154389161394733
1743758790.7214675,0.002012193442844563
1743758790.7224433,0.002011111618412926
1743758790.7234194,0.0020147176998517153
1743758790.7243955,0.0020113520238421788
1743758790.7253714,0.0020064237125424996
1743758790.7263472,0.0020060631043986206
1743758790.7273233,0.0020036590501060943
1743758790.7282996,0.0020018560093866995
1743758790.7292755,0.0019999327659526783
1743758790.7302513,0.002003538847391468
1743758790.7312274,0.001998610536091789
1743758790.7322035,0.0019942832383652415
1743758790.7331793,0.0019880326972046727
1743758790.7341552,0.0019880326972046727
1743758790.7351315,0.001982503372331862
1743758790.7361076,0.001966155803142683
1743758790.7370834,0.0019577416131188407
1743758790.7380593,0.0019501688420973827
1743758790.7390354,0.001949087017665746
1743758790.7400115,0.0019447597199391984
1743758790.7409873,0.0019296141778962824
1743758790.7419631,0.001915550460285003
1743758790.7429395,0.0019019675535322295
1743758790.7439156,0.001901486742673724
1743758790.7448914,0.0019035301888223714
1743758790.7458673,0.0019044918105393818
1743758790.7468433,0.0018990826883811976
1743758790.7478194,0.0019187959335799137
1743758790.7487955,0.0019511304638143935
1743758790.7497714,0.0019788972908930725
1743758790.7507474,0.002021328849156163
1743758790.7517235,0.0020439269595059107
1743758790.7526994,0.0020673664888580428
1743758790.7536752,0.0020632795965607477
1743758790.7546513,0.0020582310825464425
1743758790.7556276,0.0020464512165130635
1743758790.7566035,0.0020325077016164106
1743758790.7575793,0.002019766213866021
1743758790.7585554,0.002010510604839794
1743758790.7595315,0.0019940428329359885
1743758790.7605073,0.001993441819362857
1743758790.7614832,0.001997168103516273
1743758790.7624593,0.0020057024962547416
1743758790.7634356,0.002005341888110863
1743758790.7644114,0.0020113520238421788
1743758790.7653873,0.0020189247948636363
1743758790.7663634,0.002023492498019437
1743758790.7673395,0.002023973308877942
1743758790.7683153,0.002026257160455842
1743758790.7692912,0.002028901620177621
1743758790.7702675,0.002029983444609258
1743758790.7712436,0.002035272364052816
1743758790.7722194,0.002038758242776979
1743758790.7731953,0.002055466420110037
1743758790.7741714,0.0020633997992753742
1743758790.7751474,0.00206027452869509
1743758790.7761233,0.0020480138518032057
1743758790.7770994,0.002042484526930395
1743758790.7780755,0.0020338299314773003
1743758790.7790515,0.0020287814174629946
1743758790.7800274,0.0020182035785758787
1743758790.7810032,0.002020487430153779
1743758790.7819793,0.002017722767717373
1743758790.7829554,0.0020196460111513944
1743758790.7839315,0.0020191652002928893
1743758790.7849073,0.002017482362288121
1743758790.7858834,0.00201652074057111
1743758790.7868595,0.002015198510710221
1743758790.7878354,0.0020145974971370892
1743758790.7888112,0.0020131550645615735
1743758790.7897873,0.0020191652002928893
1743758790.7907636,0.0020183237812905048
1743758790.7917395,0.0020155591188541
1743758790.7927153,0.0020129146591323205
1743758790.7936914,0.0020157995242833524
1743758790.7946675,0.0020157995242833524
1743758790.7956433,0.002011832834700684
1743758790.7966192,0.0020090681722642785
1743758790.7975955,0.0020106308075544207
1743758790.7985716,0.0020106308075544207
1743758790.7995474,0.0020087075641203995
1743758790.8005233,0.0020106308075544207
1743758790.8014994,0.0020060631043986206
1743758790.8024755,0.002005462090825489
1743758790.8034513,0.002009308577693531
1743758790.8044271,0.0020145974971370892
1743758790.8054035,0.0020180833758612527
1743758790.8063796,0.002020487430153779
1743758790.8073554,0.0020219298627292947
1743758790.8083313,0.002021449051870789
1743758790.8093073,0.002025896552311963
1743758790.8102834,0.0020298632418946313
1743758790.8112595,0.0020260167550265893
1743758790.8122354,0.002027338984887479
1743758790.8132114,0.0020275793903167315
1743758790.8141875,0.0020261369577412158
1743758790.8151634,0.0020226510790170523
1743758790.8161392,0.002022771281731679
1743758790.8171153,0.0020188045921490103
1743758790.8180916,0.002017963173146626
1743758790.8190675,0.002019044997578263
1743758790.8200433,0.0020150783079955943
1743758790.8210194,0.0020159197269979784
1743758790.8219955,0.0020159197269979784
1743758790.8229713,0.00201652074057111
1743758790.8239472,0.0020182035785758787
1743758790.8249233,0.0020196460111513944
1743758790.8258996,0.002020247024724526
1743758790.8268754,0.0020168813487149895
1743758790.8278513,0.002020968241012284
1743758790.8288274,0.0020166409432857365
1743758790.8298035,0.0020201268220099
1743758790.8307793,0.002019766213866021
1743758790.8317552,0.0020219298627292947
1743758790.8327315,0.002023492498019437
1743758790.8337076,0.0020203672274391525
1743758790.8346834,0.002020968241012284
1743758790.8356593,0.002012674253703068
1743758790.8366354,0.002008346955976521
1743758790.8376114,0.002013756078134705
1743758790.8385873,0.0020161601324272314
1743758790.8395634,0.0020145974971370892
1743758790.8405395,0.0020129146591323205
1743758790.8415155,0.002010029793981289
1743758790.8424914,0.0020112318211275523
1743758790.8434672,0.0020171217541442416
1743758790.8444433,0.002019285403007516
1743758790.8454194,0.0020184439840051313
1743758790.8463955,0.0020222904708731737
1743758790.8473713,0.002021328849156163
1743758790.8483474,0.0020180833758612527
1743758790.8493235,0.002019405605722142
1743758790.8502994,0.002021689457300042
1743758790.8512752,0.0020191652002928893
1743758790.8522513,0.0020237329034486894
1743758790.8532276,0.0020208480382976576
1743758790.8542035,0.0020182035785758787
1743758790.8551793,0.002016761146000363
1743758790.8561554,0.002017482362288121
1743758790.8571315,0.0020161601324272314
1743758790.8581073,0.0020143570917078367
1743758790.8590832,0.0020155591188541
1743758790.8600595,0.0020119530374153104
1743758790.8610356,0.0020148379025663418
1743758790.8620114,0.0020220500654439207
1743758790.8629873,0.0020183237812905048
1743758790.8639634,0.0020185641867197577
1743758790.8649395,0.0020159197269979784
1743758790.8659153,0.0020201268220099
1743758790.8668911,0.0020228914844463053
1743758790.8678675,0.002023131889875558
1743758790.8688436,0.002026257160455842
1743758790.8698194,0.0020260167550265893
1743758790.8707952,0.0020268581740289734
1743758790.8717713,0.0020208480382976576
1743758790.8727474,0.0020240935115925685
1743758790.8737235,0.002028901620177621
1743758790.8746994,0.002026257160455842
1743758790.8756754,0.0020254157414534577
1743758790.8766515,0.0020245743224510736
1743758790.8776274,0.0020196460111513944
1743758790.8786032,0.002019766213866021
1743758790.8795793,0.002024333917021821
1743758790.8805556,0.0020215692545854157
1743758790.8815315,0.0020184439840051313
1743758790.8825073,0.0020212086464415366
1743758790.8834834,0.0020161601324272314
1743758790.8844595,0.0020161601324272314
1743758790.8854353,0.0020182035785758787
1743758790.8864112,0.0020156793215687263
1743758790.8873873,0.0020178429704319997
1743758790.8883636,0.002021809660014668
1743758790.8893394,0.0020173621595734946
1743758790.8903153,0.0020221702681585472
1743758790.8912914,0.002023612700734063
1743758790.8922675,0.0020254157414534577
1743758790.8932433,0.0020221702681585472
1743758790.8942192,0.0020240935115925685
1743758790.8951955,0.0020191652002928893
1743758790.8961716,0.002016761146000363
1743758790.8971474,0.002019044997578263
1743758790.8981233,0.0020168813487149895
1743758790.8990993,0.002020247024724526
1743758790.9000754,0.002017241956858868
1743758790.9010513,0.0020168813487149895
1743758790.9020274,0.0020196460111513944
1743758790.9030035,0.0020210884437269106
1743758790.9039795,0.002023492498019437
1743758790.9049554,0.0020220500654439207
1743758790.9059312,0.0020272187821728524
1743758790.9069073,0.0020260167550265893
1743758790.9078834,0.0020249349305949526
1743758790.9088595,0.0020283006066044895
1743758790.9098353,0.002022771281731679
1743758790.9108114,0.002030344052753137
1743758790.9117875,0.002032267296187158
1743758790.9127634,0.002028541012033742
1743758790.9137392,0.0020210884437269106
1743758790.9147153,0.0020200066192952735
1743758790.9156916,0.002020487430153779
1743758790.9166675,0.002019285403007516
1743758790.9176433,0.002015318713424847
1743758790.9186194,0.0020188045921490103
1743758790.9195955,0.0020224106735877998
1743758790.9205713,0.0020198864165806474
1743758790.9215472,0.002016039929712605
1743758790.9225235,0.0020170015514296155
1743758790.9234996,0.0020155591188541
1743758790.9244754,0.002019044997578263
1743758790.9254513,0.002024454119736447
1743758790.9264274,0.0020269783767436
1743758790.9274035,0.0020268581740289734
1743758790.9283793,0.002025175336024205
1743758790.9293554,0.0020222904708731737
1743758790.9303315,0.0020237329034486894
1743758790.9313076,0.0020198864165806474
1743758790.9322834,0.002024814727880326
1743758790.9332592,0.002020487430153779
1743758790.9342353,0.0020238531061633155
1743758790.9352114,0.0020242137143071945
1743758790.9361875,0.002021809660014668
1743758790.9371634,0.0020246945251657
1743758790.9381394,0.0020219298627292947
1743758790.9391155,0.002012193442844563
1743758790.9400914,0.0020147176998517153
1743758790.9410672,0.002017963173146626
1743758790.9420433,0.0020186843894343842
1743758790.9430196,0.002019766213866021
1743758790.9439955,0.002023252092590184
1743758790.9449713,0.0020220500654439207
1743758790.9459474,0.0020196460111513944
1743758790.9469235,0.0020198864165806474
1743758790.9478993,0.0020219298627292947
1743758790.9488752,0.002021328849156163
1743758790.9498513,0.0020212086464415366
1743758790.9508276,0.002021689457300042
1743758790.9518034,0.002019285403007516
1743758790.9527793,0.002015318713424847
1743758790.9537554,0.0020188045921490103
1743758790.9547315,0.0020195258084367684
1743758790.9557073,0.0020150783079955943
1743758790.9566832,0.0020139964835639576
1743758790.9576595,0.0020082267532618944
1743758790.9586356,0.002005822698969368
1743758790.9596114,0.0020026974283890837
1743758790.9605873,0.002000894387669689
1743758790.9615633,0.0019984903333771626
1743758790.9625394,0.001995605468226131
1743758790.9635153,0.0019996923605234257
1743758790.9644914,0.0020006539822404364
1743758790.9654675,0.0019981297252332835
1743758790.9664435,0.002003538847391468
1743758790.9674194,0.0019993317523795467
1743758790.9683952,0.0019977691170894045
1743758790.9693713,0.001997408508945526
1743758790.9703474,0.001995365062796878
1743758790.9713235,0.0019993317523795467
1743758790.9722993,0.001996687292657768
1743758790.9732754,0.0019969276980870204
1743758790.9742515,0.0019942832383652415
1743758790.9752274,0.0019958458736553837
1743758790.9762032,0.001990316548782573
1743758790.9771793,0.001989955940638694
1743758790.9781556,0.001983464994048873
1743758790.9791315,0.0019841862103366307
1743758790.9801073,0.0019828639804757415
1743758790.9810834,0.0019776952637468093
1743758790.9820595,0.0019773346556029307
1743758790.9830353,0.001976493236600546
1743758790.9840112,0.0019784164800345674
1743758790.9849875,0.0019769740474590517
1743758790.9859636,0.001978176074605315
1743758790.9869394,0.0019769740474590517
1743758790.9879153,0.001973007357876383
1743758790.9888914,0.0019724063443032516
1743758790.9898674,0.0019750508040250305
1743758790.9908433,0.0019736083714495148
1743758790.9918194,0.001973007357876383
1743758790.9927955,0.0019708437090131094
1743758790.9937716,0.001970242695439978
1743758790.9947474,0.0019659153977134303
1743758790.9957232,0.0019599052619821145
1743758790.9966993,0.001952572896389909
1743758790.9976754,0.0019489668149511195
1743758790.9986515,0.0019512506665290196
1743758790.9996274,0.0019451203280830773
1743758791.0006034,0.0019429566792198037
1743758791.0015795,0.001942716273790551
1743758791.0025554,0.0019404324222126509
1743758791.0035312,0.001943437490078309
1743758791.0045073,0.0019433172873636825
1743758791.0054836,0.0019452405307977037
1743758791.0064595,0.00194307688193443
1743758791.0074353,0.0019452405307977037
1743758791.0084114,0.0019428364765051774
1743758791.0093875,0.0019457213416562088
1743758791.0103633,0.0019462021525147144
1743758791.0113392,0.0019448799226538247
1743758791.0123153,0.0019421152602174193
1743758791.0132916,0.0019406728276419036
1743758791.0142674,0.0019422354629320458
1743758791.0152433,0.0019334606647643247
1743758791.0162194,0.0019310566104717983
1743758791.0171955,0.00193165762404493
1743758791.0181713,0.0019299747860401612
1743758791.0191472,0.0019276909344622612
1743758791.0201235,0.001927570731747635
1743758791.0210996,0.0019204787715846822
1743758791.0220754,0.001919276744438419
1743758791.0230513,0.0019204787715846822
1743758791.0240273,0.001923003028591835
1743758791.0250034,0.0019231232313064613
1743758791.0259793,0.0019252868801697349
1743758791.0269554,0.001925046474740482
1743758791.0279315,0.0019244454611673505
1743758791.0289075,0.0019300949887547877
1743758791.0298834,0.0019334606647643247
1743758791.0308592,0.0019337010701935772
1743758791.0318353,0.001933220259335072
1743758791.0328114,0.0019298545833255352
1743758791.0337875,0.0019268495154598773
1743758791.0347633,0.001926488907315998
1743758791.0357394,0.0019251666774551086
1743758791.0367155,0.001921560596016319
1743758791.0376914,0.0019181949200067821
1743758791.0386672,0.0019173535010043978
1743758791.0396433,0.0019137474195656083
1743758791.0406196,0.001922281812304077
1743758791.0415955,0.0019175939064336506
1743758791.0425713,0.0019193969471530453
1743758791.0435474,0.0019216807987309454
1743758791.0445235,0.0019228828258772085
1743758791.0454993,0.0019255272855989876
1743758791.0464752,0.0019261282991721192
1743758791.0474515,0.0019258878937428664
1743758791.0484276,0.001928772758893898
1743758791.0494034,0.0019288929616085243
1743758791.0503793,0.0019269697181745033
1743758791.0513554,0.001925046474740482
1743758791.0523314,0.001926008096457493
1743758791.0533073,0.0019261282991721192
1743758791.0542834,0.0019274505290330088
1743758791.0552595,0.0019232434340210873
1743758791.0562356,0.0019196373525822979
1743758791.0572114,0.0019157908657142558
1743758791.0581872,0.0019137474195656083
1743758791.0591633,0.001915550460285003
1743758791.0601394,0.0019126655951339716
1743758791.0611155,0.0019091797164098084
1743758791.0620914,0.001906775662117282
1743758791.0630674,0.001904612013254008
1743758791.0640435,0.0019000443100982082
1743758791.0650194,0.0019024483643907345
1743758791.0659952,0.0019053332295417662
1743758791.0669713,0.0019085787028366768
1743758791.0679476,0.0019095403245536872
1743758791.0689235,0.0019179545145775296
1743758791.0698993,0.0019197575552969243
1743758791.0708754,0.0019305757996132928
1743758791.0718515,0.0019406728276419036
1743758791.0728273,0.0019383889760640038
1743758791.0738032,0.0019385091787786299
1743758791.0747795,0.0019322586376180615
1743758791.0757556,0.0019310566104717983
1743758791.0767314,0.0019276909344622612
1743758791.0777073,0.0019196373525822979
1743758791.0786834,0.0019168726901458927
1743758791.0796595,0.0019106221489853241
1743758791.0806353,0.0019065352566880293
1743758791.0816112,0.001902568567105361
1743758791.0825875,0.0019017271481029767
1743758791.0835636,0.0018955968096570344
1743758791.0845394,0.001897640255805682
1743758791.0855153,0.0018996837019543292
1743758791.0864913,0.0019049726213978874
1743758791.0874674,0.0019096605272683137
1743758791.0884433,0.0019167524874312662
1743758791.0894194,0.0019156706629996295
1743758791.0903955,0.0019132666087071032
1743758791.0913715,0.001906415053973403
1743758791.0923474,0.0018992028910958239
1743758791.0933232,0.0018899472820695974
1743758791.0942993,0.0018821341056188868
1743758791.0952754,0.0018762441726021973
1743758791.0962515,0.0018778068078923393
1743758791.0972273,0.0018774461997484605
1743758791.0982034,0.0018768451861753289
1743758791.0991795,0.0018856199843430498
1743758791.1001554,0.0018954766069424081
1743758791.1011312,0.0019031695806784926
1743758791.1021073,0.001920358568870056
1743758791.1030836,0.001932138434903435
1743758791.1040595,0.0019299747860401612
1743758791.1050353,0.0019312970159010509
1743758791.1060114,0.001932859651191193
1743758791.1069875,0.0019218010014455719
1743758791.1079633,0.001921560596016319
1743758791.1089392,0.0019181949200067821
1743758791.1099155,0.0019149494467118715
1743758791.1108916,0.0019141080277094876
1743758791.1118674,0.0019126655951339716
1743758791.1128433,0.0019052130268271397
1743758791.1138194,0.001906054445829524
1743758791.1147954,0.0019019675535322295
1743758791.1157713,0.0019013665399590979
1743758791.1167474,0.0018993230938104504
1743758791.1177235,0.001897640255805682
1743758791.1186996,0.0019052130268271397
1743758791.1196754,0.001902568567105361
1743758791.1206512,0.0019007655263859659
1743758791.1216273,0.0019013665399590979
1743758791.1226034,0.0019005251209567135
1743758791.1235795,0.0018998039046689555
1743758791.1245553,0.001893913971652266
1743758791.1255314,0.001891630120074366
1743758791.1265075,0.0018853795789137975
1743758791.1274834,0.0018847785653406657
1743758791.1284592,0.0018840573490529079
1743758791.1294353,0.0018752825508851865
1743758791.1304116,0.0018734795101657917
1743758791.1313875,0.0018722774830195286
1743758791.1323633,0.0018750421454559341
1743758791.1333394,0.001873840118309671
1743758791.1343155,0.0018821341056188868
1743758791.1352913,0.0018910291065012345
1743758791.1362672,0.0019040109996808765
1743758791.1372435,0.0019079776892635453
1743758791.1382196,0.0019114635679877085
1743758791.1391954,0.0019035301888223714
1743758791.1401713,0.0018910291065012345
1743758791.1411474,0.00187876842960935
1743758791.1421235,0.001873840118309671
1743758791.1430993,0.001875402753599813
1743758791.1440752,0.0018708350504440128
1743758791.1450515,0.001867469374434476
1743758791.1460276,0.0018665077527174655
1743758791.1470034,0.0018642239011395655
1743758791.1479793,0.0018669885635759706
1743758791.1489553,0.0018725178884487813
1743758791.1499314,0.0018769653888899551
1743758791.1509073,0.0018800906594702395
1743758791.1518834,0.0018840573490529079
1743758791.1528594,0.0018804512676141184
1743758791.1538355,0.0018770855916045816
1743758791.1548114,0.0018748017400266814
1743758791.1557872,0.0018742007264535498
1743758791.1567633,0.0018717966721610235
1743758791.1577394,0.0018660269418589602
1743758791.1587155,0.0018651855228565759
1743758791.1596913,0.0018641036984249392
1743758791.1606674,0.0018696330232977497
1743758791.1616435,0.0018781674160362183
1743758791.1626194,0.00188333613276515
1743758791.1635952,0.0018823745110481394
1743758791.1645713,0.001879970456755613
1743758791.1655476,0.0018770855916045816
1743758791.1665235,0.0018692724151538706
1743758791.1674993,0.0018699936314416287
1743758791.1684754,0.0018657865364297074
1743758791.1694515,0.0018667481581467183
1743758791.1704273,0.0018619400495616652
1743758791.1714032,0.0018620602522762917
1743758791.1723795,0.0018598966034130179
1743758791.1733556,0.0018623006577055444
1743758791.1743314,0.0018667481581467183
1743758791.1753073,0.0018632622794225548
1743758791.1762834,0.0018528046432500654
1743758791.1772594,0.0018502803862429126
1743758791.1782353,0.0018467945075187492
1743758791.1792114,0.001844029845082344
1743758791.1801875,0.0018495591699551547
1743758791.1811635,0.0018583339681228757
1743758791.1821394,0.0018609784278446548
1743758791.1831152,0.0018618198468470391
1743758791.1840913,0.0018656663337150812
1743758791.1850674,0.0018698734287270022
1743758791.1860435,0.0018726380911634078
1743758791.1870193,0.001883816943623655
1743758791.1879954,0.0018835765381944025
1743758791.1889715,0.001886822011489313
1743758791.1899474,0.0018891058630672133
1743758791.1909232,0.0018850189707699183
1743758791.1918993,0.0018788886323239764
1743758791.1928756,0.0018749219427413076
1743758791.1938515,0.0018725178884487813
1743758791.1948273,0.0018709552531586393
1743758791.1958034,0.0018654259282858286
1743758791.1967795,0.0018574925491204916
1743758791.1977553,0.001851242007959923
1743758791.1987312,0.0018461934939456176
1743758791.1997075,0.0018446308586554756
1743758791.2006836,0.0018465541020894966
1743758791.2016594,0.0018483571428088916
1743758791.2026353,0.0018342934251976122
1743758791.2036114,0.0018269610596054068
1743758791.2045875,0.001818667072296191
1743758791.2055633,0.0018119357202771172
1743758791.2065392,0.0018155418017159067
1743758791.2075155,0.0018056851791165484
1743758791.2084916,0.0018030407193947693
1743758791.2094674,0.0018091710578407116
1743758791.2104433,0.0018169842342914226
1743758791.2114193,0.0018127771392795011
1743758791.2123954,0.0018136185582818855
1743758791.2133713,0.0018177054505791803
1743758791.2143474,0.001811454909418612
1743758791.2153234,0.001811454909418612
1743758791.2162995,0.0018245570053128804
1743758791.2172754,0.0018366974794901385
1743758791.2182512,0.00186145923870316
1743758791.2192273,0.0018762441726021973
1743758791.2202036,0.0018808118757579972
1743758791.2211795,0.001879489645897108
1743758791.2221553,0.001887543227777071
1743758791.2231314,0.0018934331607937608
1743758791.2241075,0.0018907887010719817
1743758791.2250834,0.001894635187940024
1743758791.2260592,0.0018952362015131556
1743758791.2270353,0.0018877836332063238
1743758791.2280116,0.0018832159300505235
1743758791.2289875,0.0018778068078923393
1743758791.2299633,0.0018705946450147603
1743758791.2309394,0.0018667481581467183
1743758791.2319155,0.00186145923870316
1743758791.2328913,0.0018553289002572178
1743758791.2338672,0.0018523238323915599
1743758791.2348435,0.0018517228188184283
1743758791.2358196,0.0018525642378208126
1743758791.2367954,0.0018477561292357598
1743758791.2377713,0.0018553289002572178
1743758791.2387474,0.0018582137654082496
1743758791.2397234,0.0018546076839694601
1743758791.2406993,0.0018623006577055444
1743758791.2416754,0.0018669885635759706
1743758791.2426515,0.0018647047119980708
1743758791.2436275,0.0018610986305592813
1743758791.2446034,0.0018610986305592813
1743758791.2455792,0.00185917538712526
1743758791.2465553,0.0018632622794225548
1743758791.2475314,0.0018635026848518076
1743758791.2485075,0.0018613390359885336
1743758791.2494833,0.001866387550002839
1743758791.2504594,0.0018668683608613443
1743758791.2514355,0.0018667481581467183
1743758791.2524114,0.0018630218739933023
1743758791.2533872,0.0018630218739933023
1743758791.2543633,0.0018613390359885336
1743758791.2553396,0.0018613390359885336
1743758791.2563155,0.0018656663337150812
1743758791.2572913,0.0018604976169861497
1743758791.2582674,0.00185917538712526
1743758791.2592435,0.0018584541708375022
1743758791.2602193,0.0018574925491204916
1743758791.2611952,0.0018550884948279652
1743758791.2621715,0.00185689153554736
1743758791.2631476,0.0018556895084010968
1743758791.2641234,0.0018531652513939442
1743758791.2650993,0.0018506409943867914
1743758791.2660754,0.0018530450486793177
1743758791.2670515,0.0018511218052452967
1743758791.2680273,0.001857252143691239
1743758791.2690032,0.00185689153554736
1743758791.2699795,0.001853886467681702
1743758791.2709556,0.0018543672785402074
1743758791.2719314,0.0018552086975425917
1743758791.2729073,0.0018537662649670758
1743758791.2738833,0.001851963224247681
1743758791.2748594,0.0018546076839694601
1743758791.2758353,0.0018522036296769334
1743758791.2768114,0.0018514824133891758
1743758791.2777874,0.001860617819700776
1743758791.2787635,0.001864824914712697
1743758791.2797394,0.0018579733599789969
1743758791.2807152,0.0018632622794225548
1743758791.2816913,0.0018660269418589602
1743758791.2826676,0.0018708350504440128
1743758791.2836435,0.00188105228118725
1743758791.2846193,0.001886341200630808
1743758791.2855954,0.0018845381599114132
1743758791.2865715,0.001882254308333513
1743758791.2875473,0.0018735997128804182
1743758791.2885232,0.0018711956585878919
1743758791.2894993,0.0018677097798637287
1743758791.2904756,0.0018675895771491022
1743758791.2914515,0.0018708350504440128
1743758791.2924273,0.0018785280241800971
1743758791.2934034,0.0018811724839018762
1743758791.2943795,0.0018870624169185658
1743758791.2953553,0.001886822011489313
1743758791.2963312,0.0018816532947603815
1743758791.2973075,0.0018737199155950445
1743758791.2982836,0.0018725178884487813
1743758791.2992594,0.0018699936314416287
1743758791.3002353,0.0018705946450147603
1743758791.3012114,0.0018691522124392446
1743758791.3021874,0.0018709552531586393
1743758791.3031633,0.001872758293878034
1743758791.3041394,0.0018751623481705604
1743758791.3051155,0.0018751623481705604
1743758791.3060915,0.001873840118309671
1743758791.3070674,0.001872397685734155
1743758791.3080432,0.001872397685734155
1743758791.3090193,0.0018661471445735867
1743758791.3099954,0.0018620602522762917
1743758791.3109715,0.0018624208604201707
1743758791.3119473,0.001862901671278676
1743758791.3129234,0.0018636228875664339
1743758791.3138995,0.0018667481581467183
1743758791.3148754,0.0018654259282858286
1743758791.3158512,0.0018635026848518076
1743758791.3168273,0.001853886467681702
1743758791.3178036,0.0018540066703963286
1743758791.3187795,0.0018620602522762917
1743758791.3197553,0.0018604976169861497
1743758791.3207314,0.0018624208604201707
1743758791.3217075,0.0018571319409766125
1743758791.3226833,0.001847034912948002
1743758791.3236592,0.0018418661962190705
1743758791.3246355,0.0018495591699551547
1743758791.3256116,0.0018555693056864705
1743758791.3265874,0.0018661471445735867
1743758791.3275633,0.0018654259282858286
1743758791.3285394,0.00186145923870316
1743758791.3295155,0.0018630218739933023
1743758791.3304913,0.0018761239698875708
1743758791.3314672,0.0018883846467794554
1743758791.3324435,0.0018918705255036184
1743758791.3334196,0.001890908903786608
1743758791.3343954,0.0018886250522087077
1743758791.3353713,0.0018840573490529079
1743758791.3363473,0.0018778068078923393
1743758791.3373234,0.0018782876187508448
1743758791.3382993,0.0018748017400266814
1743758791.3392754,0.001869032009724618
1743758791.3402514,0.0018625410631347968
1743758791.3412275,0.00186145923870316
1743758791.3422034,0.00185689153554736
1743758791.3431792,0.0018513622106745495
1743758791.3441553,0.001848236940094265
1743758791.3451316,0.0018487177509527704
1743758791.3461075,0.0018441500477969703
1743758791.3470833,0.0018363368713462597
1743758791.3480594,0.0018358560604877542
1743758791.3490355,0.001833091398051349
1743758791.3500113,0.001831889370905086
1743758791.3509872,0.0018321297763343387
1743758791.3519633,0.00183044693832957
1743758791.3529396,0.0018336924116244806
1743758791.3539155,0.0018324903844782175
1743758791.3548913,0.0018380197093510282
1743758791.3558674,0.0018478763319503863
1743758791.3568435,0.0018529248459646915
1743758791.3578193,0.0018626612658494233
1743758791.3587952,0.001866387550002839
1743758791.3597715,0.0018744411318828025
1743758791.3607476,0.001877325997033834
1743758791.3617234,0.0018742007264535498
1743758791.3626993,0.001870113834156255
1743758791.3636754,0.0018657865364297074
1743758791.3646514,0.0018596561979837653
1743758791.3656273,0.001854247075825581
1743758791.3666034,0.001857252143691239
1743758791.3675795,0.0018541268731109546
1743758791.3685555,0.0018532854541085705
1743758791.3695314,0.0018544874812548337
1743758791.3705072,0.0018550884948279652
1743758791.3714833,0.0018620602522762917
1743758791.3724594,0.0018642239011395655
1743758791.3734355,0.0018626612658494233
1743758791.3744113,0.0018649451174273235
1743758791.3753874,0.0018618198468470391
1743758791.3763635,0.0018577329545497441
1743758791.3773394,0.0018541268731109546
1743758791.3783152,0.0018548480893987125
1743758791.3792913,0.0018487177509527704
1743758791.3802676,0.0018528046432500654
1743758791.3812435,0.0018511218052452967
1743758791.3822193,0.0018441500477969703
1743758791.3831954,0.0018437894396530913
1743758791.3841715,0.0018423470070775755
1743758791.3851473,0.0018445106559408493
1743758791.3861232,0.001831889370905086
1743758791.3870995,0.0018270812623200332
1743758791.3880756,0.0018257590324591436
1743758791.3890514,0.00183044693832957
1743758791.3900273,0.0018309277491880755
1743758791.3910034,0.0018286438976101752
1743758791.3919795,0.0018280428840370436
1743758791.3929553,0.001822513559164233
1743758791.3939312,0.0018268408568907805
1743758791.3949075,0.0018399429527850492
1743758791.3958836,0.0018510016025306702
1743758791.3968594,0.0018573723464058653
1743758791.3978353,0.0018618198468470391
1743758791.3988113,0.001857612751835118
1743758791.3997874,0.001851242007959923
1743758791.4007633,0.0018439096423677175
1743758791.4017394,0.0018416257907898177
1743758791.4027154,0.001846674304804123
1743758791.4036915,0.0018442702505115968
1743758791.4046674,0.0018445106559408493
1743758791.4056432,0.0018321297763343387
1743758791.4066193,0.0018264802487469017
1743758791.4075956,0.0018263600460322752
1743758791.4085715,0.001827802478607791
1743758791.4095473,0.0018335722089098544
1743758791.4105234,0.0018386207229241598
1743758791.4114995,0.0018404237636435545
1743758791.4124753,0.0018334520061952279
1743758791.4134512,0.0018374186957778966
1743758791.4144273,0.0018481167373796388
1743758791.4154036,0.001848236940094265
1743758791.4163795,0.0018464338993748703
1743758791.4173553,0.0018415055880751912
1743758791.4183314,0.001833812614339107
1743758791.4193075,0.0018322499790489647
1743758791.4202833,0.0018290045057540543
1743758791.4212592,0.0018280428840370436
1743758791.4222355,0.0018306873437588227
1743758791.4232116,0.001833091398051349
1743758791.4241874,0.0018411449799313124
1743758791.4251633,0.0018292449111833068
1743758791.4261394,0.0018298459247564384
1743758791.4271154,0.0018311681546173278
1743758791.4280913,0.0018285236948955492
1743758791.4290674,0.0018284034921809227
1743758791.4300435,0.0018328509926220963
1743758791.4310195,0.0018382601147802805
1743758791.4319954,0.001844029845082344
1743758791.4329712,0.001849679372669781
1743758791.4339473,0.0018639834957103127
1743758791.4349234,0.00185917538712526
1743758791.4358995,0.00185689153554736
1743758791.4368753,0.0018536460622524493
1743758791.4378514,0.001849318764525902
1743758791.4388275,0.0018465541020894966
1743758791.4398034,0.0018340530197683595
1743758791.4407792,0.001828884303039428
1743758791.4417553,0.0018207105184448382
1743758791.4427316,0.0018192680858693225
1743758791.4437075,0.001813017544708754
1743758791.4446833,0.0018169842342914226
1743758791.4456594,0.0018169842342914226
1743758791.4466355,0.001813017544708754
1743758791.4476113,0.0018128973419941276
1743758791.4485872,0.001820229707586333
1743758791.4495635,0.0018233549781666173
1743758791.4505396,0.0018302065329003174
1743758791.4515154,0.001834533830626865
1743758791.4524913,0.0018292449111833068
1743758791.4534674,0.0018238357890251226
1743758791.4544435,0.0018174650451499277
1743758791.4554193,0.0018217923428764753
1743758791.4563951,0.0018214317347325963
1743758791.4573715,0.0018226337618788594
1743758791.4583476,0.0018223933564496069
1743758791.4593234,0.0018180660587230593
1743758791.4602993,0.0018159024098597855
1743758791.4612753,0.0018183064641523119
1743758791.4622514,0.001817224639720675
1743758791.4632275,0.0018166236261475434
1743758791.4642034,0.0018119357202771172
1743758791.4651794,0.0018120559229917435
1743758791.4661555,0.0018144599772842698
1743758791.4671314,0.001816383220718291
1743758791.4681072,0.0018148205854281486
1743758791.4690833,0.0018174650451499277
1743758791.4700596,0.0018166236261475434
1743758791.4710355,0.0018109740985601064
1743758791.4720113,0.0018107336931308538
1743758791.4729874,0.0018021993003923854
1743758791.4739635,0.001799074029812101
1743758791.4749393,0.0017945063266563011
1743758791.4759152,0.0017890972044981165
1743758791.4768913,0.001786212339347085
1743758791.4778676,0.0017844092986276903
1743758791.4788435,0.001785851731203206
1743758791.4798193,0.0017836880823399323
1743758791.4807954,0.0017924628805076536
1743758791.4817715,0.0018101326795577223
1743758791.4827473,0.0018103730849869748
1743758791.4837232,0.0018109740985601064
1743758791.4846995,0.0018052043682580433
1743758791.4856756,0.001804242746541033
1743758791.4866514,0.001804723557399538
1743758791.4876273,0.0018035215302532749
1743758791.4886034,0.0018102528822723488
1743758791.4895794,0.0018109740985601064
1743758791.4905553,0.001812656936564875
1743758791.4915314,0.001811454909418612
1743758791.4925075,0.0018116953148478645
1743758791.4934835,0.001804723557399538
1743758791.4944594,0.00180628619268968
1743758791.4954352,0.0018065265981189328
1743758791.4964113,0.001797511394521959
1743758791.4973874,0.0017987134216682222
1743758791.4983635,0.0017916214615052693
1743758791.4993393,0.0017868133529202166
1743758791.5003154,0.0017799617981865167
1743758791.5012915,0.001770225378301785
1743758791.5022674,0.0017656576751459846
1743758791.5032432,0.0017609697692755582
1743758791.5042193,0.0017591667285561635
1743758791.5051956,0.001763494026282711
1743758791.5061715,0.001763133418138832
1743758791.5071473,0.001768061729438511
1743758791.5081234,0.0017698647701579057
1743758791.5090995,0.0017800820009011428
1743758791.5100753,0.001787654771922601
1743758791.5110512,0.0018068872062628116
1743758791.5120275,0.0018190276804400697
1743758791.5130036,0.0018116953148478645
1743758791.5139794,0.0018060457872604277
1743758791.5149553,0.00179715078637808
1743758791.5159314,0.0017907800425028852
1743758791.5169075,0.001785851731203206
1743758791.5178833,0.0017856113257739535
1743758791.5188591,0.0017833274741960534
1743758791.5198355,0.0017770769330354849
1743758791.5208116,0.0017716678108773006
1743758791.5217874,0.0017708263918749165
1743758791.5227633,0.0017750334868868376
1743758791.5237393,0.0017765961221769795
1743758791.5247154,0.001771427405448048
1743758791.5256915,0.0017762355140331007
1743758791.5266674,0.001774432473313706
1743758791.5276434,0.0017781587574671215
1743758791.5286195,0.0017769567303208584
1743758791.5295954,0.0017747930814575848
1743758791.5305712,0.0017799617981865167
1743758791.5315473,0.0017857315284885798
1743758791.5325236,0.0017848901094861954
1743758791.5334995,0.001781644636191285
1743758791.5344753,0.0017822456497644165
1743758791.5354514,0.0017783991628963743
1743758791.5364275,0.0017750334868868376
1743758791.5374033,0.0017698647701579057
1743758791.5383792,0.0017696243647286533
1743758791.5393553,0.0017610899719901847
1743758791.5403316,0.0017533969982541002
1743758791.5413074,0.0017549596335442424
1743758791.5422833,0.0017531565928248477
1743758791.5432594,0.0017526757819663421
1743758791.5442355,0.0017535172009687265
1743758791.5452113,0.001747987876095916
1743758791.5461872,0.0017482282815251685
1743758791.5471635,0.001763614228997337
1743758791.5481396,0.001764575850714348
1743758791.5491154,0.0017644556479997214
1743758791.5500913,0.0017651768642874795
1743758791.5510674,0.0017580849041245268
1743758791.5520434,0.0017607293638463057
1743758791.5530193,0.0017615707828486898
1743758791.5539954,0.0017663788914337427
1743758791.5549715,0.0017681819321531374
1743758791.5559475,0.0017598879448439215
1743758791.5569234,0.0017494303086714317
1743758791.5578992,0.0017471464570935318
1743758791.5588753,0.0017422181457938527
1743758791.5598514,0.0017410161186475895
1743758791.5608275,0.0017442615919425
1743758791.5618033,0.0017464252408057738
1743758791.5627794,0.001741256524076842
1743758791.5637555,0.0017413767267914684
1743758791.5647314,0.0017406555105037105
1743758791.5657072,0.0017388524697843158
1743758791.5666833,0.0017371696317795473
1743758791.5676596,0.0017422181457938527
1743758791.5686355,0.0017458242272326422
1743758791.5696113,0.0017458242272326422
1743758791.5705874,0.0017526757819663421
1743758791.5715635,0.0017603687557024266
1743758791.5725393,0.001760128350273174
1743758791.5735152,0.0017683021348677637
1743758791.5744915,0.0017684223375823902
1743758791.5754676,0.0017576040932660213
1743758791.5764434,0.0017574838905513952
1743758791.5774193,0.0017520747683932106
1743758791.5783954,0.001747266659808158
1743758791.5793715,0.0017430595647962368
1743758791.5803473,0.0017395736860720736
1743758791.5813231,0.001737049429064921
1743758791.5822995,0.0017321211177652419
1743758791.5832756,0.0017276736173240683
1743758791.5842514,0.0017225049005951366
1743758791.5852273,0.001728034225467947
1743758791.5862033,0.001723827130456026
1743758791.5871794,0.0017246685494584104
1743758791.5881555,0.0017285150363264524
1743758791.5891314,0.0017326019286237474
1743758791.5901074,0.0017330827394822525
1743758791.5910835,0.0017380110507819316
1743758791.5920594,0.0017394534833574473
1743758791.5930352,0.0017351261856308998
1743758791.5940113,0.0017383716589258105
1743758791.5949876,0.0017394534833574473
1743758791.5959635,0.001740415105074458
1743758791.5969393,0.0017359676046332841
1743758791.5979154,0.0017360878073479104
1743758791.5988915,0.0017335635503407578
1743758791.5998673,0.0017338039557700106
1743758791.6008432,0.0017321211177652419
1743758791.6018193,0.001729116049899584
1743758791.6027956,0.0017255099684607945
1743758791.6037714,0.0017237069277413997
1743758791.6047473,0.0017258705766046735
1743758791.6057234,0.0017318807123359893
1743758791.6066995,0.0017371696317795473
1743758791.6076753,0.0017339241584846366
1743758791.6086512,0.001733683753055384
1743758791.6096275,0.0017323615231944946
1743758791.6106036,0.0017304382797604734
1743758791.6115794,0.0017273130091801892
1743758791.6125553,0.0017322413204798682
1743758791.6135314,0.0017321211177652419
1743758791.6145074,0.0017328423340529997
1743758791.6154833,0.0017274332118948155
1743758791.6164594,0.001721182670734247
1743758791.6174355,0.0017197402381587312
1743758791.6184115,0.0017170957784369521
1743758791.6193874,0.0017068785476937152
1743758791.6203632,0.001701950236394036
1743758791.6213393,0.0016874057079242517
1743758791.6223154,0.0016936562490848202
1743758791.6232915,0.0016947380735164571
1743758791.6242673,0.0016904107757899096
1743758791.6252434,0.0016985845603844994
1743758791.6262195,0.0017065179395498364
1743758791.6271954,0.001712888683425031
1743758791.6281712,0.0017082007775546047
1743758791.6291473,0.0017068785476937152
1743758791.6301236,0.0017125280752811522
1743758791.6310995,0.0017089219938423628
1743758791.6320753,0.0017089219938423628
1743758791.6330514,0.0017095230074154943
1743758791.6340275,0.0017032724662549258
1743758791.6350033,0.0017036330743988046
1743758791.6359792,0.0017013492228209045
1743758791.6369555,0.0016990653712430045
1743758791.6379316,0.001692093613794678
1743758791.6389074,0.00169137239750692
1743758791.6398833,0.0016864440862072413
1743758791.6408594,0.0016896895595021517
1743758791.6418355,0.0016910117893630412
1743758791.6428113,0.0016900501676460308
1743758791.6437871,0.001682597599339199
1743758791.6447635,0.0016810349640490566
1743758791.6457396,0.0016800733423320462
1743758791.6467154,0.0016793521260442883
1743758791.6476912,0.0016842804373439673
1743758791.6486673,0.0016864440862072413
1743758791.6496434,0.001691252194792294
1743758791.6506195,0.001694016857228699
1743758791.6515954,0.0016953390870895887
1743758791.6525714,0.001697021925094357
1743758791.6535475,0.0016976229386674888
1743758791.6545234,0.0016999067902453886
1743758791.6554992,0.0017068785476937152
1743758791.6564753,0.001701950236394036
1743758791.6574516,0.0017015896282501573
1743758791.6584275,0.0016956996952334675
1743758791.6594033,0.0016906511812191623
1743758791.6603794,0.0016848814509170989
1743758791.6613555,0.0016786309097565303
1743758791.6623313,0.0016768278690371355
1743758791.6633072,0.00167310158488372
1743758791.6642833,0.001665168205718383
1743758791.6652596,0.0016585570564139355
1743758791.6662354,0.0016575954346969247
1743758791.6672113,0.0016609611107064619
1743758791.6681874,0.0016654086111476355
1743758791.6691635,0.0016711783414496988
1743758791.6701393,0.0016757460446054989
1743758791.6711152,0.0016767076663225095
1743758791.6720915,0.0016801935450466727
1743758791.6730676,0.0016925744246531831
1743758791.6740434,0.0016982239522406203
1743758791.6750193,0.0017026714526817942
1743758791.6759953,0.0017047148988304413
1743758791.6769714,0.0017069987504083415
1743758791.6779473,0.001703512871684178
1743758791.6789234,0.0017066381422644625
1743758791.6798995,0.0017015896282501573
1743758791.6808755,0.001695459289804215
1743758791.6818514,0.0016815157749075621
1743758791.6828272,0.001666009624720767
1743758791.6838033,0.0016566338129799143
1743758791.6847794,0.001648580231099951
1743758791.6857555,0.0016519459071094877
1743758791.6867313,0.0016554317858336511
1743758791.6877074,0.0016555519885482772
1743758791.6886835,0.0016590378672724406
1743758791.6896594,0.0016649278002891302
1743758791.6906352,0.0016684136790132934
1743758791.6916113,0.001669014692586425
1743758791.6925876,0.0016678126654401618
1743758791.6935635,0.001667452057296283
1743758791.6945393,0.001664807597574504
1743758791.6955154,0.0016613217188503407
1743758791.6964915,0.0016547105695458933
1743758791.6974673,0.0016536287451142564
1743758791.6984432,0.0016551913804043984
1743758791.6994195,0.001647859014812193
1743758791.7003956,0.0016446135415172827
1743758791.7013714,0.0016358387433495613
1743758791.7023473,0.0016309104320498822
1743758791.7033234,0.001631271040193761
1743758791.7042994,0.0016295882021889927
1743758791.7052753,0.0016246598908893136
1743758791.7062514,0.0016355983379203085
1743758791.7072275,0.0016416084736516243
1743758791.7082036,0.0016398054329322296
1743758791.7091794,0.0016467771903805562
1743758791.7101552,0.0016417286763662508
1743758791.7111313,0.0016394448247883508
1743758791.7121074,0.0016436519198002719
1743758791.7130835,0.0016389640139298455
1743758791.7140594,0.001639204419359098
1743758791.7150354,0.0016335548917716612
1743758791.7160115,0.0016242992827454348
1743758791.7169874,0.0016241790800308085
1743758791.7179632,0.0016259821207502032
1743758791.7189393,0.00162478009360394
1743758791.7199156,0.0016345165134886716
1743758791.7208915,0.0016355983379203085
1743758791.7218673,0.0016322326619107718
1743758791.7228434,0.001626703337037961
1743758791.7238195,0.0016128800248559345
1743758791.7247953,0.0016065092809807396
1743758791.7257712,0.0016027829968273237
1743758791.7267473,0.0015968930638106341
1743758791.7277236,0.0015877576574990341
1743758791.7286994,0.0015946092122327343
1743758791.7296753,0.0015977344828130185
1743758791.7306514,0.0016143224574314502
1743758791.7316275,0.0015626352901421338
1743758791.7326033,0.0015626352901421338
1743758791.7335792,0.0015626352901421338
1743758791.7345555,0.0015626352901421338
1743758791.7355316,0.0015626352901421338
1743758791.7365074,0.0015626352901421338
1743758791.7374833,0.0015626352901421338
1743758791.7384593,0.0015626352901421338
1743758791.7394354,0.0015626352901421338
1743758791.7404113,0.0015626352901421338
1743758791.7413874,0.0015626352901421338
1743758791.7423635,0.0015626352901421338
1743758791.7433395,0.0015626352901421338
1743758791.7443154,0.0015626352901421338
1743758791.7452912,0.0015626352901421338
1743758791.7462673,0.0015626352901421338
1743758791.7472434,0.0015626352901421338
1743758791.7482195,0.0015626352901421338
1743758791.7491953,0.0015626352901421338
1743758791.7501714,0.0015626352901421338
1743758791.7511475,0.0015626352901421338
1743758791.7521234,0.0015626352901421338
1743758791.7530992,0.0015626352901421338
1743758791.7540753,0.0015626352901421338
1743758791.7550516,0.0015626352901421338
1743758791.7560275,0.0015626352901421338
1743758791.7570033,0.0015626352901421338
1743758791.7579794,0.0015626352901421338
1743758791.7589555,0.0015626352901421338
1743758791.7599313,0.0015626352901421338
1743758791.7609072,0.0015626352901421338
1743758791.7618835,0.0015626352901421338
1743758791.7628596,0.0015626352901421338
1743758791.7638354,0.0015626352901421338
1743758791.7648113,0.0015626352901421338
1743758791.7657874,0.0015626352901421338
1743758791.7667634,0.0015626352901421338
1743758791.7677393,0.0015626352901421338
1743758791.7687154,0.0015626352901421338
1743758791.7696915,0.0015626352901421338
1743758791.7706676,0.0015626352901421338
1743758791.7716434,0.0015626352901421338
1743758791.7726192,0.0015626352901421338
1743758791.7735953,0.0015626352901421338
1743758791.7745714,0.0015626352901421338
1743758791.7755475,0.0015626352901421338
1743758791.7765234,0.0015626352901421338
1743758791.7774994,0.0015626352901421338
1743758791.7784755,0.0015626352901421338
1743758791.7794514,0.0015626352901421338
1743758791.7804272,0.0015626352901421338
1743758791.7814033,0.0015626352901421338
1743758791.7823796,0.0015626352901421338
1743758791.7833555,0.0015629958982860126
1743758791.7843313,0.0015613130602812441
1743758791.7853074,0.0015651595471492862
1743758791.7862835,0.001562875695571386
1743758791.7872593,0.0015682848177295706
1743758791.7882352,0.0015660009661516705
1743758791.7892113,0.0015739343453170076
1743758791.7901876,0.0015887192792160448
1743758791.7911634,0.0015974940773837657
1743758791.7921393,0.0015973738746691394
1743758791.7931154,0.0015980950909568973
1743758791.7940915,0.001592205157940208
1743758791.7950673,0.0015866758330673972
1743758791.7960432,0.0015950900230912394
1743758791.7970195,0.0015890798873599236
1743758791.7979956,0.0015780212376143023
1743758791.7989714,0.001571770696453734
1743758791.7999473,0.001566601979724802
1743758791.8009233,0.00155818778970096
1743758791.8018994,0.0015495331942478648
1743758791.8028753,0.0015547019109767967
1743758791.8038514,0.001559750424991102
1743758791.8048275,0.0015626352901421338
1743758791.8058035,0.0015711696828806024
1743758791.8067794,0.0015859546167796392
1743758791.8077552,0.0015961718475228763
1743758791.8087313,0.0016001385371055448
1743758791.8097074,0.0016102355651341554
1743758791.8106835,0.001609995159704903
1743758791.8116593,0.0016060284701222343
1743758791.8126354,0.0015986961045300289
1743758791.8136115,0.0015902819145061867
1743758791.8145874,0.0015825889407701025
1743758791.8155632,0.0015735737371731287
1743758791.8165393,0.0015711696828806024
1743758791.8175156,0.0015688858313027021
1743758791.8184915,0.0015700878584489653
1743758791.8194673,0.0015617938711397494
1743758791.8204434,0.0015541008974036652
1743758791.8214195,0.0015422008286556596
1743758791.8223953,0.0015405179906508911
1743758791.8233712,0.0015375129227852332
1743758791.8243475,0.001544244274804307
1743758791.8253236,0.001560111033134981
1743758791.8262994,0.0015894404955038024
1743758791.8272753,0.0016162457008654714
1743758791.8282514,0.0016252609044624452
1743758791.8292274,0.0016322326619107718
1743758791.8302033,0.0016389640139298455
1743758791.8311794,0.0016358387433495613
1743758791.8321555,0.0016361993514934401
1743758791.8331316,0.001631271040193761
1743758791.8341074,0.0016384832030713404
1743758791.8350832,0.0016365599596373191
1743758791.8360593,0.0016354781352056825
1743758791.8370354,0.0016196113768750084
1743758791.8380115,0.0016044658348320924
1743758791.8389874,0.0015910031307939446
1743758791.8399634,0.0015944890095181078
1743758791.8409395,0.0015843919814894972
1743758791.8419154,0.0015742949534608864
1743758791.8428912,0.0015829495489139813
1743758791.8438673,0.001579824278333697
1743758791.8448436,0.001579103062045939
1743758791.8458195,0.0015742949534608864
1743758791.8467953,0.001584271778774871
1743758791.8477714,0.0015882384683575392
1743758791.8487475,0.0015934071850864711
1743758791.8497233,0.0015988163072446554
1743758791.8506992,0.00160518705111985
1743758791.8516755,0.001610355767848782
1743758791.8526516,0.0016155244845777134
1743758791.8536274,0.0016107163759926607
1743758791.8546033,0.0016011001588225554
1743758791.8555794,0.0015952102258058659
1743758791.8565555,0.0015923253606548342
1743758791.8575313,0.0015892000900745498
1743758791.8585072,0.0015768192104680392
1743758791.8594835,0.001555182721835302
1743758791.8604596,0.0015453260992359438
1743758791.8614354,0.0015406381933655174
1743758791.8624113,0.0015447250856628122
1743758791.8633873,0.0015460473155237018
1743758791.8643634,0.001544604882948186
1743758791.8653393,0.0015495331942478648
1743758791.8663154,0.00157189089916836
1743758791.8672915,0.0015950900230912394
1743758791.8682675,0.0016185295524433713
1743758791.8692434,0.0016333144863424085
1743758791.8702192,0.0016372811759250772
1743758791.8711953,0.001635357932491056
1743758791.8721714,0.0016252609044624452
1743758791.8731475,0.0016166063090093505
1743758791.8741233,0.0016077113081270028
1743758791.8750994,0.0016023021859688186
1743758791.8760755,0.001590762725364692
1743758791.8770514,0.0015866758330673972
1743758791.8780272,0.0015827091434847285
1743758791.8790033,0.0015799444810483234
1743758791.8799796,0.0015758575887510286
1743758791.8809555,0.0015795838729044445
1743758791.8819313,0.0015714100883098547
1743758791.8829074,0.0015686454258734496
1743758791.8838835,0.001573814142602381
1743758791.8848593,0.0015763383996095339
1743758791.8858352,0.0015824687380554762
1743758791.8868115,0.0015878778602136604
1743758791.8877876,0.0015996577262470397
1743758791.8887634,0.001597854685527645
1743758791.8897393,0.0015970132665252606
1743758791.8907154,0.0015972536719545134
1743758791.8916914,0.001592685968798713
1743758791.8926673,0.0015944890095181078
1743758791.8936434,0.001601701172395687
1743758791.8946195,0.0016080719162708818
1743758791.8955956,0.001612279011282803
1743758791.8965714,0.0016075911054123763
1743758791.8975472,0.0016027829968273237
1743758791.8985233,0.0015962920502375025
1743758791.8994994,0.0015960516448082502
1743758791.9004755,0.0015985759018154026
1743758791.9014513,0.0015925657660840868
1743758791.9024274,0.0015902819145061867
1743758791.9034035,0.0015923253606548342
1743758791.9043794,0.0015851131977772553
1743758791.9053552,0.0015824687380554762
1743758791.9063313,0.0015879980629282867
1743758791.9073076,0.001591123333508571
1743758791.9082835,0.0015918445497963287
1743758791.9092593,0.0015947294149473606
1743758791.9102354,0.0015973738746691394
1743758791.9112115,0.0015991769153885342
1743758791.9121873,0.0015974940773837657
1743758791.9131632,0.0015934071850864711
1743758791.9141395,0.001602061780539566
1743758791.9151156,0.0016008597533933029
1743758791.9160914,0.001597854685527645
1743758791.9170673,0.001601340564251808
1743758791.9180434,0.001596412252952129
1743758791.9190195,0.0015908829280793183
1743758791.9199953,0.001590402117220813
1743758791.9209712,0.0015892000900745498
1743758791.9219475,0.001580545494621455
1743758791.9229236,0.0015781414403289286
1743758791.9238994,0.0015672029932979337
1743758791.9248753,0.001562875695571386
1743758791.9258513,0.0015645585335761546
1743758791.9268274,0.001561673668425123
1743758791.9278033,0.0015605918439934863
1743758791.9287794,0.0015723717100268656
1743758791.9297554,0.0015783818457581814
1743758791.9307315,0.0015760979941802811
1743758791.9317074,0.0015833101570578605
1743758791.9326832,0.001594248604088855
1743758791.9336593,0.001602061780539566
1743758791.9346356,0.0015992971181031605
1743758791.9356115,0.00160518705111985
1743758791.9365873,0.0016065092809807396
1743758791.9375634,0.001605066848405224
1743758791.9385395,0.0016114375922804186
1743758791.9395154,0.001620933606735898
1743758791.9404912,0.0016116779977096713
1743758791.9414673,0.001594248604088855
1743758791.9424436,0.0015905223199354395
1743758791.9434195,0.001594248604088855
1743758791.9443953,0.00159148394165245
1743758791.9453714,0.0015736939398877548
1743758791.9463475,0.0015715302910244812
1743758791.9473233,0.0015656403580077917
1743758791.9482992,0.0015516968431111388
1743758791.9492755,0.0015495331942478648
1743758791.9502516,0.0015391957607900017
1743758791.9512274,0.0015539806946890387
1743758791.9522033,0.0015836707652017393
1743758791.9531794,0.001600979956107929
1743758791.9541554,0.001607350699983124
1743758791.9551313,0.001601701172395687
1743758791.9561074,0.0016045860375467184
1743758791.9570835,0.0016023021859688186
1743758791.9580595,0.0015973738746691394
1743758791.9590354,0.0016038648212589608
1743758791.9600112,0.0016029031995419502
1743758791.9609873,0.0015930465769425919
1743758791.9619634,0.0015881182656429132
1743758791.9629395,0.0015833101570578605
1743758791.9639153,0.0015823485353408497
1743758791.9648914,0.0015815071163384653
1743758791.9658675,0.0015797040756190706
1743758791.9668434,0.001578982859331313
1743758791.9678192,0.0015818677244823446
1743758791.9687953,0.0015836707652017393
1743758791.9697716,0.0015825889407701025
1743758791.9707475,0.0015846323869187497
1743758791.9717233,0.0015818677244823446
1743758791.9726994,0.001575977791465655
1743758791.9736755,0.001574775764319392
1743758791.9746513,0.001573814142602381
1743758791.9756272,0.00156960704759046
1743758791.9766035,0.0015686454258734496
1743758791.9775796,0.0015655201552931652
1743758791.9785554,0.0015615534657104967
1743758791.9795313,0.0015589090059887178
1743758791.9805074,0.0015574665734132019
1743758791.9814835,0.00154773015352847
1743758791.9824593,0.0015543413028329177
1743758791.9834352,0.0015526584648281492
1743758791.9844115,0.0015555433299791809
1743758791.9853876,0.0015538604919744124
1743758791.9863634,0.0015641979254322758
1743758791.9873393,0.0015727323181707444
1743758791.9883153,0.0015720111018829863
1743758791.9892914,0.0015730929263146232
1743758791.9902673,0.0015788626566166865
1743758791.9912434,0.0015704484665928443
1743758791.9922194,0.0015635969118591442
1743758791.9931955,0.0015562645462669387
1743758791.9941714,0.0015473695453845913
1743758791.9951472,0.0015455665046651965
1743758791.9961233,0.001546528126382207
1743758791.9970996,0.0015539806946890387
1743758791.9980755,0.0015678040068710652
1743758791.9990513,0.001574775764319392
1743758792.0000274,0.001579103062045939
1743758792.0010035,0.0015819879271969709
1743758792.0019794,0.0015766990077534127
1743758792.0029552,0.001578261643043555
1743758792.0039313,0.001575977791465655
1743758792.0049076,0.0015741747507462603
1743758792.0058835,0.00156960704759046
1743758792.0068593,0.001562875695571386
1743758792.0078354,0.0015632363037152654
1743758792.0088115,0.001563476709144518
1743758792.0097873,0.0015664817770101758
1743758792.0107632,0.0015613130602812441
1743758792.0117395,0.0015591494114179703
1743758792.0127156,0.0015651595471492862
1743758792.0136914,0.0015708090747367232
1743758792.0146673,0.0015730929263146232
1743758792.0156434,0.001573814142602381
1743758792.0166194,0.0015652797498639126
1743758792.0175953,0.0015607120467081125
1743758792.0185714,0.0015553029245499283
1743758792.0195475,0.0015479705589577228
1743758792.0205235,0.0015572261679839491
1743758792.0214994,0.001562394884712881
1743758792.0224752,0.0015613130602812441
1743758792.0234513,0.0015579473842717072
1743758792.0244274,0.001555182721835302
1743758792.0254035,0.0015585483978448388
1743758792.0263793,0.001572251507312239
1743758792.0273554,0.0015851131977772553
1743758792.0283315,0.0015825889407701025
1743758792.0293074,0.0015773000213265443
1743758792.0302832,0.0015740545480316338
1743758792.0312593,0.0015716504937391075
1743758792.0322356,0.0015684050204441968
1743758792.0332115,0.0015613130602812441
1743758792.0341873,0.0015520574512550176
1743758792.0351634,0.0015428018422287912
1743758792.0361395,0.001537873530929112
1743758792.0371153,0.0015359502874950912
1743758792.0380912,0.0015309017734807858
1743758792.0390675,0.0015366715037828489
1743758792.0400436,0.0015360704902097173
1743758792.0410194,0.0015369119092121016
1743758792.0419953,0.0015376331254998595
1743758792.0429714,0.0015492927888186125
1743758792.0439475,0.001563837317288397
1743758792.0449233,0.001572612115456118
1743758792.0458992,0.0015859546167796392
1743758792.0468755,0.0015857142113503868
1743758792.0478516,0.0015819879271969709
1743758792.0488274,0.0015687656285880756
1743758792.0498033,0.0015720111018829863
1743758792.0507793,0.0015657605607224177
1743758792.0517554,0.001567683804156439
1743758792.0527313,0.0015697272503050865
1743758792.0537074,0.0015674433987271864
1743758792.0546834,0.0015672029932979337
1743758792.0556595,0.0015668423851540548
1743758792.0566354,0.0015750161697486442
1743758792.0576112,0.00157189089916836
1743758792.0585873,0.001573814142602381
1743758792.0595636,0.0015744151561755126
1743758792.0605395,0.0015684050204441968
1743758792.0615153,0.0015672029932979337
1743758792.0624914,0.0015635969118591442
1743758792.0634675,0.0015563847489815652
1743758792.0644433,0.001557105965269323
1743758792.0654192,0.0015591494114179703
1743758792.0663953,0.00155818778970096
1743758792.0673716,0.0015543413028329177
1743758792.0683475,0.0015508554241087545
1743758792.0693233,0.0015554231272645544
1743758792.0702994,0.0015526584648281492
1743758792.0712755,0.0015504948159648757
1743758792.0722513,0.0015531392756866545
1743758792.0732272,0.0015539806946890387
1743758792.0742035,0.0015542211001182912
1743758792.0751796,0.0015483311671016017
1743758792.0761554,0.0015480907616723493
1743758792.0771313,0.001544965491092065
1743758792.0781074,0.0015402775852216383
1743758792.0790834,0.001541239206938649
1743758792.0800593,0.0015474897480992178
1743758792.0810354,0.001546528126382207
1743758792.0820115,0.0015407583960801439
1743758792.0829875,0.0015335462332025645
1743758792.0839634,0.00154087859879477
1743758792.0849392,0.0015569857625546968
1743758792.0859153,0.0015545817082621702
1743758792.0868914,0.0015542211001182912
1743758792.0878675,0.0015536200865451596
1743758792.0888433,0.0015563847489815652
1743758792.0898194,0.0015705686693074704
1743758792.0907955,0.001588478873786792
1743758792.0917714,0.001597133469239887
1743758792.0927472,0.0015845121842041237
1743758792.0937233,0.0015655201552931652
1743758792.0946996,0.0015507352213941282
1743758792.0956755,0.0015390755580753752
1743758792.0966513,0.0015507352213941282
1743758792.0976274,0.0015507352213941282
1743758792.0986035,0.001553019072972028
1743758792.0995793,0.0015508554241087545
1743758792.1005552,0.0015424412340849121
1743758792.1015315,0.0015437634639458018
1743758792.1025076,0.0015471291399553385
1743758792.1034834,0.0015438836666604278
1743758792.1044593,0.001547249342669965
1743758792.1054354,0.0015417200177971543
1743758792.1064115,0.0015417200177971543
1743758792.1073873,0.0015409988015093964
1743758792.1083632,0.0015422008286556596
1743758792.1093395,0.0015426816395141647
1743758792.1103156,0.001532584611485554
1743758792.1112914,0.0015402775852216383
1743758792.1122673,0.0015422008286556596
1743758792.1132433,0.001543523058516549
1743758792.1142194,0.0015388351526461226
1743758792.1151953,0.001537873530929112
1743758792.1161714,0.0015282573137590067
1743758792.1171474,0.0015252522458933486
1743758792.1181235,0.0015248916377494698
1743758792.1190994,0.0015244108268909647
1743758792.1200752,0.0015329452196294329
1743758792.1210513,0.0015406381933655174
1743758792.1220276,0.001551456437681886
1743758792.1230035,0.0015509756268233808
1743758792.1239793,0.001549893802391744
1743758792.1249554,0.0015473695453845913
1743758792.1259315,0.0015428018422287912
1743758792.1269073,0.0015440038693750543
1743758792.1278832,0.0015425614367995386
1743758792.1288593,0.0015426816395141647
1743758792.1298356,0.001541239206938649
1743758792.1308115,0.0015316229897685437
1743758792.1317873,0.0015210451508814275
1743758792.1327634,0.001521165353596054
1743758792.1337395,0.0015120299472844538
1743758792.1347153,0.0015141935961477274
1743758792.1356912,0.0015115491364259485
1743758792.1366675,0.0015180400830157696
1743758792.1376436,0.0015256128540372278
1743758792.1386194,0.0015333058277733121
1743758792.1395953,0.0015438836666604278
1743758792.1405714,0.0015568655598400703
1743758792.1415474,0.0015621544792836283
1743758792.1425233,0.0015621544792836283
1743758792.1434994,0.0015547019109767967
1743758792.1444755,0.0015489321806747332
1743758792.1454515,0.0015456867073798226
1743758792.1464274,0.0015440038693750543
1743758792.1474032,0.0015361906929243435
1743758792.1483793,0.0015417200177971543
1743758792.1493554,0.001542080625941033
1743758792.1503315,0.0015422008286556596
1743758792.1513073,0.001542080625941033
1743758792.1522834,0.0015426816395141647
1743758792.1532595,0.0015376331254998595
1743758792.1542354,0.0015390755580753752
1743758792.1552112,0.0015372725173559804
1743758792.1561873,0.0015383543417876175
1743758792.1571636,0.0015405179906508911
1743758792.1581395,0.001544604882948186
1743758792.1591153,0.0015448452883774387
1743758792.1600914,0.0015444846802335594
1743758792.1610675,0.001541239206938649
1743758792.1620433,0.0015388351526461226
1743758792.1630192,0.0015327048142001806
1743758792.1639955,0.0015348684630634541
1743758792.1649716,0.0015292189354760173
1743758792.1659474,0.0015358300847804647
1743758792.1669233,0.0015456867073798226
1743758792.1678994,0.001546167518238328
1743758792.1688755,0.0015542211001182912
1743758792.1698513,0.0015599908304203547
1743758792.1708272,0.001552538262113523
1743758792.1718035,0.0015468887345260862
1743758792.1727796,0.0015418402205117805
1743758792.1737554,0.0015448452883774387
1743758792.1747313,0.0015456867073798226
1743758792.1757073,0.0015304209626222805
1743758792.1766834,0.00153402704406107
1743758792.1776593,0.0015400371797923858
1743758792.1786354,0.0015337866386318172
1743758792.1796114,0.0015292189354760173
1743758792.1805875,0.001524170421461712
1743758792.1815634,0.0015365513010682228
1743758792.1825392,0.0015484513698162282
1743758792.1835153,0.0015343876522049488
1743758792.1844916,0.0015316229897685437
1743758792.1854675,0.0015468887345260862
1743758792.1864433,0.001553379681115907
1743758792.1874194,0.0015526584648281492
1743758792.1883955,0.0015426816395141647
1743758792.1893713,0.0015397967743631333
1743758792.1903472,0.0015417200177971543
1743758792.1913233,0.0015360704902097173
1743758792.1922996,0.0015394361662192542
1743758792.1932755,0.0015462877209529542
1743758792.1942513,0.001529819949049149
1743758792.1952274,0.0015182804884450224
1743758792.1962035,0.0015104673119943118
1743758792.1971793,0.0015091450821334222
1743758792.1981552,0.0015145542042916064
1743758792.1991315,0.0015221269753130644
1743758792.2001076,0.001527295692041996
1743758792.2010834,0.0015295795436198962
1743758792.2020593,0.0015284977191882593
1743758792.2030354,0.0015293391381906434
1743758792.2040114,0.0015318633951977962
1743758792.2049873,0.001526814881183491
1743758792.2059634,0.001524651232320217
1743758792.2069395,0.001524170421461712
1743758792.2079155,0.001524170421461712
1743758792.2088914,0.0015250118404640963
1743758792.2098672,0.0015278967056151277
1743758792.2108433,0.0015342674494903225
1743758792.2118194,0.0015395563689338807
1743758792.2127955,0.00153402704406107
1743758792.2137713,0.0015402775852216383
1743758792.2147474,0.0015443644775189334
1743758792.2157235,0.0015441240720896806
1743758792.2166994,0.001538234139072991
1743758792.2176752,0.0015258532594664802
1743758792.2186513,0.0015206845427375487
1743758792.2196276,0.001523088597030075
1743758792.2206035,0.001531382584339291
1743758792.2215793,0.0015316229897685437
1743758792.2225554,0.0015222471780276907
1743758792.2235315,0.0015196027183059116
1743758792.2245073,0.0015218865698838119
1743758792.2254832,0.001524651232320217
1743758792.2264595,0.0015317431924831697
1743758792.2274356,0.0015437634639458018
1743758792.2284114,0.001547249342669965
1743758792.2293873,0.0015474897480992178
1743758792.2303634,0.0015542211001182912
1743758792.2313395,0.0015556635326938071
1743758792.2323153,0.001557105965269323
1743758792.2332911,0.0015522978566842704
1743758792.2342675,0.0015524180593988965
1743758792.2352436,0.001556024140837686
1743758792.2362194,0.0015428018422287912
1743758792.2371953,0.0015277765029005014
1743758792.2381713,0.001521646164454559
1743758792.2391474,0.0015244108268909647
1743758792.2401235,0.0015275360974712486
1743758792.2410994,0.0015309017734807858
1743758792.2420754,0.0015335462332025645
1743758792.2430515,0.0015422008286556596
1743758792.2440274,0.0015379937336437383
1743758792.2450032,0.0015391957607900017
1743758792.2459793,0.0015367917064974751
1743758792.2469556,0.0015441240720896806
1743758792.2479315,0.0015447250856628122
1743758792.2489073,0.0015411190042240227
1743758792.2498834,0.001537873530929112
1743758792.2508595,0.0015387149499314964
1743758792.2518353,0.001543042247658044
1743758792.2528112,0.0015503746132502492
1743758792.2537873,0.001549893802391744
1743758792.2547636,0.0015426816395141647
1743758792.2557395,0.0015395563689338807
1743758792.2567153,0.001541599815082528
1743758792.2576914,0.0015414796123679015
1743758792.2586675,0.0015379937336437383
1743758792.2596433,0.0015431624503726702
1743758792.2606192,0.0015375129227852332
1743758792.2615955,0.0015365513010682228
1743758792.2625716,0.0015277765029005014
1743758792.2635474,0.001522727988886196
1743758792.2645233,0.001529940151763775
1743758792.2654994,0.0015290987327613908
1743758792.2664754,0.0015274158947566226
1743758792.2674513,0.0015346280576342016
1743758792.2684274,0.001534748260348828
1743758792.2694035,0.0015228481916008223
1743758792.2703795,0.0015224875834569435
1743758792.2713554,0.0015252522458933486
1743758792.2723312,0.0015252522458933486
1743758792.2733073,0.0015307815707661593
1743758792.2742834,0.0015462877209529542
1743758792.2752595,0.0015565049516961915
1743758792.2762353,0.001558668600559465
1743758792.2772114,0.0015545817082621702
1743758792.2781875,0.001548811977960107
1743758792.2791634,0.0015568655598400703
1743758792.2801392,0.0015751363724632707
1743758792.2811153,0.00156960704759046
1743758792.2820916,0.0015585483978448388
1743758792.2830675,0.0015453260992359438
1743758792.2840433,0.001531382584339291
1743758792.2850194,0.001533666435917191
1743758792.2859955,0.0015329452196294329
1743758792.2869713,0.0015335462332025645
1743758792.2879472,0.0015389553553607491
1743758792.2889235,0.001549893802391744
1743758792.2898996,0.0015667221824394284
1743758792.2908754,0.0015723717100268656
1743758792.2918513,0.0015785020484728074
1743758792.2928274,0.0015621544792836283
1743758792.2938035,0.0015553029245499283
1743758792.2947793,0.0015787424539020602
1743758792.2957551,0.001590041509076934
1743758792.2967315,0.0015833101570578605
1743758792.2977076,0.0015720111018829863
1743758792.2986834,0.0015485715725308544
1743758792.2996593,0.001545085693806691
1743758792.3006353,0.001545085693806691
1743758792.3016114,0.0015640777227176495
1743758792.3025875,0.0015667221824394284
1743758792.3035634,0.0015694868448758337
1743758792.3045394,0.001562875695571386
1743758792.3055155,0.0015583079924155862
1743758792.3064914,0.0015699676557343388
1743758792.3074672,0.0015801848864775761
1743758792.3084433,0.001578982859331313
1743758792.3094196,0.0015720111018829863
1743758792.3103955,0.00156960704759046
1743758792.3113713,0.0015682848177295706
1743758792.3123474,0.0015764586023241601
1743758792.3133235,0.0015764586023241601
1743758792.3142993,0.0015711696828806024
1743758792.3152752,0.0015787424539020602
1743758792.3162513,0.0015835505624871129
1743758792.3172276,0.0015758575887510286
1743758792.3182034,0.0015762181968949076
1743758792.3191793,0.0015816273190530918
1743758792.3201554,0.001571049480165976
1743758792.3211315,0.0015649191417200336
1743758792.3221073,0.0015603514385642335
1743758792.3230832,0.0015632363037152654
1743758792.3240595,0.0015651595471492862
1743758792.3250356,0.0015651595471492862
1743758792.3260114,0.001566962587868681
1743758792.3269873,0.0015605918439934863
1743758792.3279634,0.0015507352213941282
1743758792.3289394,0.0015478503562430966
1743758792.3299153,0.0015483311671016017
1743758792.3308914,0.0015422008286556596
1743758792.3318675,0.0015399169770777595
1743758792.3328435,0.0015424412340849121
1743758792.3338194,0.0015596302222764759
1743758792.3347952,0.0015728525208853707
1743758792.3357713,0.0015740545480316338
1743758792.3367474,0.0015860748194942657
1743758792.3377235,0.0015972536719545134
1743758792.3386993,0.0016039850239735868
1743758792.3396754,0.0016107163759926607
1743758792.3406515,0.001613120430285187
1743758792.3416274,0.0016117982004242978
1743758792.3426032,0.0016084325244147607
1743758792.3435793,0.001606629483695366
1743758792.3445556,0.0016132406329998135
1743758792.3455315,0.001609995159704903
1743758792.3465073,0.0016107163759926607
1743758792.3474834,0.0016101153624195291
1743758792.3484595,0.001608913335273266
1743758792.3494353,0.001614562862860703
1743758792.3504112,0.0016127598221413082
1743758792.3513875,0.0016170871198678558
1743758792.3523636,0.0016181689442994925
1743758792.3533394,0.0016228568501699188
1743758792.3543153,0.00162249624202604
1743758792.3552914,0.0016258619180355767
1743758792.3562675,0.001618289147014119
1743758792.3572433,0.0016146830655753292
1743758792.3582191,0.0016220154311675347
1743758792.3591955,0.001619851782304261
1743758792.3601716,0.0016185295524433713
1743758792.3611474,0.0016181689442994925
1743758792.3621233,0.0016188901605872505
1743758792.3630993,0.0016188901605872505
1743758792.3640754,0.0016163659035800977
1743758792.3650515,0.001618289147014119
1743758792.3660274,0.0016173275252971081
1743758792.3670034,0.0016148032682899557
1743758792.3679795,0.0016120386058535504
1743758792.3689554,0.0016174477280117346
1743758792.3699312,0.0016220154311675347
1743758792.3709073,0.0016235780664576767
1743758792.3718836,0.0016152840791484608
1743758792.3728595,0.0016176881334409874
1743758792.3738353,0.0016262225261794558
1743758792.3748114,0.0016265831343233348
1743758792.3757875,0.001638723608500593
1743758792.3767633,0.0016400458383614824
1743758792.3777392,0.0016380023922128349
1743758792.3787153,0.001639204419359098
1743758792.3796916,0.0016384832030713404
1743758792.3806674,0.0016400458383614824
1743758792.3816433,0.001641368068222372
1743758792.3826194,0.0016476186093829406
1743758792.3835955,0.0016472580012390613
1743758792.3845713,0.001652787326111872
1743758792.3855472,0.0016596388808455722
1743758792.3865235,0.0016563934075506615
1743758792.3874996,0.0016636055704282407
1743758792.3884754,0.0016751450310323673
1743758792.3894513,0.001669014692586425
1743758792.3904274,0.0016602398944187038
1743758792.3914034,0.0016431711089417668
1743758792.3923793,0.0016467771903805562
1743758792.3933554,0.001657956042840804
1743758792.3943315,0.0016604802998479563
1743758792.3953075,0.0016578358401261775
1743758792.3962834,0.0016444933388026562
1743758792.3972592,0.0016398054329322296
1743758792.3982353,0.0016425700953686352
1743758792.3992114,0.0016440125279441507
1743758792.4001875,0.001639925635646856
1743758792.4011633,0.001641368068222372
1743758792.4021394,0.0016426902980832615
1743758792.4031155,0.0016438923252295246
1743758792.4040914,0.0016426902980832615
1743758792.4050672,0.0016502630691047195
1743758792.4060433,0.0016606005025625826
1743758792.4070196,0.001676587463607883
1743758792.4079955,0.0016877663160681305
1743758792.4089713,0.0016965411142358519
1743758792.4099474,0.001700026992960015
1743758792.4109235,0.0016901703703606568
1743758792.4118993,0.0016995461821015098
1743758792.4128752,0.0017002673983892676
1743758792.4138515,0.001700748209247773
1743758792.4148276,0.001694016857228699
1743758792.4158034,0.0016851218563463516
1743758792.4167793,0.001670937936020446
1743758792.4177554,0.0016717793550228303
1743758792.4187315,0.001688727937785141
1743758792.4197073,0.001692454221938557
1743758792.4206831,0.0016967815196651046
1743758792.4216595,0.0016964209115212254
1743758792.4226356,0.0016900501676460308
1743758792.4236114,0.001697021925094357
1743758792.4245872,0.0016937764517994467
1743758792.4255633,0.0016929350327970624
1743758792.4265394,0.0016844006400585938
1743758792.4275155,0.0016776692880395199
1743758792.4284914,0.0016862036807779885
1743758792.4294674,0.0016926946273678096
1743758792.4304435,0.0016908915866484149
1743758792.4314194,0.0016918532083654255
1743758792.4323952,0.001690530978504536
1743758792.4333713,0.0017031522635402993
1743758792.4343476,0.0017047148988304413
1743758792.4353235,0.001704474493401189
1743758792.4362993,0.0017050755069743205
1743758792.4372754,0.0017047148988304413
1743758792.4382515,0.0017013492228209045
1743758792.4392273,0.0017164947648638205
1743758792.4402032,0.001729476658043463
1743758792.4411793,0.001732481725909121
1743758792.4421556,0.0017372898344941736
1743758792.4431314,0.0017289958471849575
1743758792.4441073,0.001736208010062537
1743758792.4450834,0.0017490697005275526
1743758792.4460595,0.0017543586199711108
1743758792.4470353,0.001747627267952037
1743758792.4480112,0.001747627267952037
1743758792.4489875,0.0017494303086714317
1743758792.4499636,0.001740054496930579
1743758792.4509394,0.0017227453060243891
1743758792.4519153,0.0017148119268590523
1743758792.4528913,0.0017108452372763836
1743758792.4538674,0.0017393332806428209
1743758792.4548433,0.0017667394995776215
1743758792.4558194,0.0017651768642874795
1743758792.4567955,0.0017577242959806475
1743758792.4577715,0.001746906051664279
1743758792.4587474,0.0017568828769782636
1743758792.4597232,0.0017488292950983
1743758792.4606993,0.0017396938887867001
1743758792.4616754,0.0017297170634727156
1743758792.4626515,0.0017031522635402993
1743758792.4636273,0.001697021925094357
1743758792.4646034,0.0017114462508495151
1743758792.4655795,0.0017235867250267733
1743758792.4665554,0.0017374100372088
1743758792.4675312,0.001741256524076842
1743758792.4685073,0.001751353552105453
1743758792.4694836,0.0017535172009687265
1743758792.4704595,0.0017490697005275526
1743758792.4714353,0.0017448626055156316
1743758792.4724114,0.0017394534833574473
1743758792.4733875,0.0017425787539377315
1743758792.4743633,0.0017352463883455263
1743758792.4753392,0.0017344049693431421
1743758792.4763155,0.0017432999702254896
1743758792.4772916,0.001744141389227874
1743758792.4782674,0.0017378908480673051
1743758792.4792433,0.001703392668969552
1743758792.4802194,0.0017032724662549258
1743758792.4811954,0.0017095230074154943
1743758792.4821713,0.0017262311847485523
1743758792.4831474,0.0017305584824751
1743758792.4841235,0.0017269524010363104
1743758792.4850996,0.001738491861640437
1743758792.4860754,0.0017386120643550632
1743758792.4870512,0.0017429393620816108
1743758792.4880273,0.0017420979430792264
1743758792.4890034,0.001744622200086379
1743758792.4899795,0.001748468686954421
1743758792.4909554,0.0017470262543789054
1743758792.4919314,0.001750632335817695
1743758792.4929075,0.0017505121331030686
1743758792.4938834,0.0017497909168153107
1743758792.4948592,0.001748468686954421
1743758792.4958353,0.001751473754820079
1743758792.4968116,0.0017489494978129266
1743758792.4977875,0.0017475070652374107
1743758792.4987633,0.0017497909168153107
1743758792.4997394,0.0017493101059568054
1743758792.5007155,0.0017487090923836738
1743758792.5016913,0.001747627267952037
1743758792.5026672,0.0017500313222445633
1743758792.5036433,0.001748468686954421
1743758792.5046196,0.0017494303086714317
1743758792.5055954,0.0017491899032421791
1743758792.5065713,0.0017538778091126053
1743758792.5075474,0.0017523151738224633
1743758792.5085235,0.0017595273367000425
1743758792.5094993,0.0017577242959806475
1743758792.5104752,0.0017609697692755582
1743758792.5114515,0.0017618111882779423
1743758792.5124276,0.0017613303774194373
1743758792.5134034,0.0017701051755871584
1743758792.5143793,0.001768061729438511
1743758792.5153553,0.0017669799050068742
1743758792.5163314,0.00176613848600449
1743758792.5173073,0.001769263756584774
1743758792.5182834,0.0017695041620140268
1743758792.5192595,0.0017738314597405744
1743758792.5202355,0.0017743122705990795
1743758792.5212114,0.0017753940950307164
1743758792.5221872,0.0017769567303208584
1743758792.5231633,0.0017781587574671215
1743758792.5241394,0.0017803224063303955
1743758792.5251155,0.0017773173384647376
1743758792.5260913,0.0017799617981865167
1743758792.5270674,0.0017788799737548796
1743758792.5280435,0.0017800820009011428
1743758792.5290194,0.001785491123059327
1743758792.5299952,0.0017864527447763376
1743758792.5309713,0.0017900588262151273
1743758792.5319476,0.001788135582781106
1743758792.5329235,0.0017927032859369064
1743758792.5338993,0.0017917416642198956
1743758792.5348754,0.0017904194343590061
1743758792.5358515,0.0017900588262151273
1743758792.5368273,0.0017883759882103588
1743758792.5378032,0.0017866931502055902
1743758792.5387795,0.0017788799737548796
1743758792.5397556,0.0017792405818987586
1743758792.5407314,0.0017773173384647376
1743758792.5417073,0.001771427405448048
1743758792.5426834,0.0017695041620140268
1743758792.5436594,0.0017708263918749165
1743758792.5446353,0.0017739516624552005
1743758792.5456114,0.0017776779466086164
1743758792.5465875,0.0017842890959130638
1743758792.5475636,0.0017829668660521746
1743758792.5485394,0.0017796011900426375
1743758792.5495152,0.001783928487769185
1743758792.5504913,0.0017805628117596483
1743758792.5514674,0.0017822456497644165
1743758792.5524435,0.0017780385547524955
1743758792.5534194,0.0017835678796253062
1743758792.5543954,0.0017811638253327799
1743758792.5553715,0.0017808032171889006
1743758792.5563474,0.001774071865169827
1743758792.5573232,0.0017735910543113216
1743758792.5582993,0.001771427405448048
1743758792.5592756,0.00176613848600449
1743758792.5602515,0.0017564020661197581
1743758792.5612273,0.0017494303086714317
1743758792.5622034,0.0017372898344941736
1743758792.5631795,0.0017276736173240683
1743758792.5641553,0.0017233463195975207
1743758792.5651312,0.0017247887521730364
1743758792.5661073,0.0017351261856308998
1743758792.5670836,0.0017565222688343844
1743758792.5680594,0.0017940255157977956
1743758792.5690353,0.001823234775451991
1743758792.5700114,0.0018401833582143018
1743758792.5709875,0.001830326735614944
1743758792.5719633,0.00182816308675167
1743758792.5729392,0.00182816308675167
1743758792.5739155,0.0018385005202095333
1743758792.5748916,0.0018342934251976122
1743758792.5758674,0.0018219125455911013
1743758792.5768433,0.001812656936564875
1743758792.5778193,0.0018140993691403908
1743758792.5787954,0.0018145801799988959
1743758792.5797713,0.0018125367338502488
1743758792.5807474,0.001810012476843096
1743758792.5817235,0.001813017544708754
1743758792.5826995,0.0018095316659845907
1743758792.5836754,0.0018035215302532749
1743758792.5846512,0.0018050841655434169
1743758792.5856273,0.0018046033546849118
1743758792.5866034,0.0018082094361237012
1743758792.5875795,0.0018067670035481853
1743758792.5885553,0.0018065265981189328
1743758792.5895314,0.0018116953148478645
1743758792.5905075,0.0018052043682580433
1743758792.5914834,0.001808089233409075
1743758792.5924592,0.0018104932877016013
1743758792.5934353,0.0018149407881427751
1743758792.5944116,0.0018169842342914226
1743758792.5953875,0.0018197488967278278
1743758792.5963633,0.0018171044370060487
1743758792.5973394,0.0018189074777254434
1743758792.5983155,0.0018204701130155856
1743758792.5992913,0.0018310479519027016
1743758792.6002672,0.0018339328170537334
1743758792.6012435,0.001827441870463912
1743758792.6022196,0.001823234775451991
1743758792.6031954,0.0018184266668669381
1743758792.6041713,0.0018183064641523119
1743758792.6051474,0.0018140993691403908
1743758792.6061234,0.001807728625265196
1743758792.6070993,0.0018088104496968328
1743758792.6080754,0.0018086902469822066
1743758792.6090515,0.0018113347067039854
1743758792.6100276,0.001819869099442454
1743758792.6110034,0.0018145801799988959
1743758792.6119792,0.0018181862614376858
1743758792.6129553,0.0018118155175624907
1743758792.6139314,0.0018128973419941276
1743758792.6149075,0.0018083296388383275
1743758792.6158834,0.001808930652411459
1743758792.6168594,0.0018107336931308538
1743758792.6178355,0.001811575112133238
1743758792.6188114,0.0018095316659845907
1743758792.6197872,0.001811575112133238
1743758792.6207633,0.00180857004426758
1743758792.6217396,0.001805805381831175
1743758792.6227155,0.0018076084225505697
1743758792.6236913,0.001808930652411459
1743758792.6246674,0.0018083296388383275
1743758792.6256435,0.0018037619356825274
1743758792.6266193,0.0018079690306944485
1743758792.6275952,0.0018106134904162276
1743758792.6285715,0.0018136185582818855
1743758792.6295476,0.001825158018886012
1743758792.6305234,0.0018255186270298908
1743758792.6314993,0.0018291247084686808
1743758792.6324754,0.0018252782216006385
1743758792.6334515,0.0018159024098597855
1743758792.6344273,0.001816383220718291
1743758792.6354032,0.0018229943700227385
1743758792.6363795,0.0018189074777254434
1743758792.6373556,0.0018185468695815646
1743758792.6383314,0.0018134983555672592
1743758792.6393073,0.0018049639628287906
1743758792.6402833,0.0017991942325267273
1743758792.6412594,0.0017996750433852326
1743758792.6422353,0.0018074882198359434
1743758792.6432114,0.0018113347067039854
1743758792.6441875,0.0018098922741284697
1743758792.6451635,0.001808089233409075
1743758792.6461394,0.001826720654176154
1743758792.6471152,0.0018255186270298908
1743758792.6480913,0.0018385005202095333
1743758792.6490674,0.0018370580876340174
1743758792.6500435,0.0018362166686316335
1743758792.6510193,0.0018291247084686808
1743758792.6519954,0.0018344136279122385
1743758792.6529715,0.0018484773455235178
1743758792.6539474,0.001854968292113339
1743758792.6549232,0.0018517228188184283
1743758792.6558993,0.0018423470070775755
1743758792.6568756,0.0018157822071451595
1743758792.6578515,0.00180857004426758
1743758792.6588273,0.0017936649076539168
1743758792.6598034,0.0018003962596729907
1743758792.6607795,0.0017859719339178325
1743758792.6617553,0.001771427405448048
1743758792.6627312,0.0017907800425028852
1743758792.6637075,0.0017988336243828483
1743758792.6646836,0.001776716324891606
1743758792.6656594,0.0017720284190211797
1743758792.6666353,0.00177299004073819
1743758792.6676114,0.0017815244334766587
1743758792.6685874,0.001797511394521959
1743758792.6695633,0.0018017184895338801
1743758792.6705394,0.0018143397745696435
1743758792.6715155,0.0018177054505791803
1743758792.6724916,0.0018109740985601064
1743758792.6734674,0.0017976315972365851
1743758792.6744432,0.0017988336243828483
1743758792.6754193,0.0017864527447763376
1743758792.6763954,0.0017695041620140268
1743758792.6773715,0.0017625324045657004
1743758792.6783473,0.0017574838905513952
1743758792.6793234,0.0017556808498320005
1743758792.6802995,0.0017566424715490109
1743758792.6812754,0.0017675809185800058
1743758792.6822512,0.001782365852479043
1743758792.6832273,0.0018017184895338801
1743758792.6842036,0.0018282832894662964
1743758792.6851795,0.0018520834269623073
1743758792.6861553,0.0018543672785402074
1743758792.6871314,0.0018275620731785383
1743758792.6881075,0.0018052043682580433
1743758792.6890833,0.0017993144352413538
1743758792.6900592,0.0017909002452175112
1743758792.6910355,0.0017806830144742743
1743758792.6920116,0.001774071865169827
1743758792.6929874,0.0017765961221769795
1743758792.6939633,0.0017838082850545587
1743758792.6949394,0.0018097720714138432
1743758792.6959155,0.0018382601147802805
1743758792.6968913,0.001855449102971844
1743758792.6978672,0.001879489645897108
1743758792.6988435,0.0019023281616761083
1743758792.6998196,0.0018959574178009132
1743758792.7007954,0.0018772057943192077
1743758792.7017713,0.0018627814685640495
1743758792.7027473,0.001862180454990918
1743758792.7037234,0.0018543672785402074
1743758792.7046993,0.0018494389672405282
1743758792.7056754,0.0018479965346650123
1743758792.7066514,0.0018467945075187492
1743758792.7076275,0.0018439096423677175
1743758792.7086034,0.0018458328858017388
1743758792.7095792,0.001849318764525902
1743758792.7105553,0.0018460732912309915
1743758792.7115316,0.001845111669513981
1743758792.7125075,0.001844029845082344
1743758792.7134833,0.001846313696660244
1743758792.7144594,0.001846313696660244
1743758792.7154355,0.001849799575384407
1743758792.7164114,0.0018500399808136598
1743758792.7173872,0.001852684440535439
1743758792.7183633,0.0018483571428088916
1743758792.7193396,0.0018502803862429126
1743758792.7203155,0.0018487177509527704
1743758792.7212913,0.0018477561292357598
1743758792.7222674,0.001847034912948002
1743758792.7232435,0.0018478763319503863
1743758792.7242193,0.0018508813998160442
1743758792.7251952,0.0018517228188184283
1743758792.7261715,0.0018460732912309915
1743758792.7271476,0.0018510016025306702
1743758792.7281234,0.0018504005889575386
1743758792.7290993,0.0018516026161038018
1743758792.7300754,0.0018540066703963286
1743758792.7310514,0.0018541268731109546
1743758792.7320273,0.0018546076839694601
1743758792.7330034,0.001851242007959923
1743758792.7339795,0.0018531652513939442
1743758792.7349555,0.001856410724688855
1743758792.7359314,0.001853886467681702
1743758792.7369072,0.0018555693056864705
1743758792.7378833,0.0018566511301181074
1743758792.7388594,0.001854247075825581
1743758792.7398355,0.0018531652513939442
1743758792.7408113,0.0018548480893987125
1743758792.7417874,0.0018520834269623073
1743758792.7427635,0.0018570117382619865
1743758792.7437394,0.0018541268731109546
1743758792.7447152,0.0018475157238065072
1743758792.7456913,0.001845592480372486
1743758792.7466676,0.0018443904532262228
1743758792.7476435,0.001841385385360565
1743758792.7486193,0.0018437894396530913
1743758792.7495954,0.0018495591699551547
1743758792.7505715,0.001848236940094265
1743758792.7515473,0.001848597548238144
1743758792.7525232,0.0018443904532262228
1743758792.7534995,0.0018546076839694601
1743758792.7544756,0.00186145923870316
1743758792.7554514,0.0018625410631347968
1743758792.7564273,0.0018667481581467183
1743758792.7574034,0.001868551198866113
1743758792.7583795,0.0018687916042953656
1743758792.7593553,0.0018750421454559341
1743758792.7603312,0.0018707148477293866
1743758792.7613075,0.001872758293878034
1743758792.7622836,0.0018717966721610235
1743758792.7632594,0.0018725178884487813
1743758792.7642353,0.0018737199155950445
1743758792.7652113,0.001871556266731771
1743758792.7661874,0.0018693926178684971
1743758792.7671633,0.0018681905907222338
1743758792.7681394,0.0018697532260123762
1743758792.7691154,0.001868671401580739
1743758792.7700915,0.0018632622794225548
1743758792.7710674,0.0018666279554320918
1743758792.7720432,0.0018683107934368602
1743758792.7730193,0.0018672289690052234
1743758792.7739956,0.0018666279554320918
1743758792.7749715,0.0018566511301181074
1743758792.7759473,0.0018479965346650123
1743758792.7769234,0.0018377793039217754
1743758792.7778995,0.0018323701817635912
1743758792.7788754,0.0018285236948955492
1743758792.7798512,0.0018259994378883964
1743758792.7808273,0.0018199893021570805
1743758792.7818036,0.0018259994378883964
1743758792.7827795,0.0018292449111833068
1743758792.7837553,0.0018372984930632701
1743758792.7847314,0.0018487177509527704
1743758792.7857075,0.0018631420767079283
1743758792.7866833,0.0018802108621848656
1743758792.7876592,0.0018912695119304868
1743758792.7886355,0.0018899472820695974
1743758792.7896116,0.001883696740909029
1743758792.7905874,0.0018806916730433711
1743758792.7915633,0.0018851391734845447
1743758792.7925394,0.0018812926866165027
1743758792.7935154,0.0018814128893311288
1743758792.7944913,0.0018786482268947236
1743758792.7954674,0.0018785280241800971
1743758792.7964435,0.0018800906594702395
1743758792.7974195,0.0018761239698875708
1743758792.7983954,0.0018766047807460761
1743758792.7993712,0.001875763361743692
1743758792.8003473,0.001872397685734155
1743758792.8013234,0.0018713158613025182
1743758792.8022995,0.0018744411318828025
1743758792.8032753,0.0018772057943192077
1743758792.8042514,0.0018721572803049025
1743758792.8052275,0.001873118902021913
1743758792.8062034,0.0018702340368708813
1743758792.8071792,0.0018782876187508448
1743758792.8081553,0.0018812926866165027
1743758792.8091316,0.001879489645897108
1743758792.8101075,0.0018784078214654709
1743758792.8110833,0.0018809320784726237
1743758792.8120594,0.0018778068078923393
1743758792.8130355,0.001874320929168176
1743758792.8140113,0.0018803310648994919
1743758792.8149872,0.0018811724839018762
1743758792.8159635,0.0018809320784726237
1743758792.8169396,0.0018830957273358975
1743758792.8179154,0.0018744411318828025
1743758792.8188913,0.0018691522124392446
1743758792.8198674,0.001868551198866113
1743758792.8208435,0.0018756431590290657
1743758792.8218193,0.0018714360640171444
1743758792.8227952,0.001866387550002839
1743758792.8237715,0.001887543227777071
1743758792.8247476,0.0019073766756904137
1743758792.8257234,0.0019141080277094876
1743758792.8266993,0.0019048524186832609
1743758792.8276753,0.0019096605272683137
1743758792.8286514,0.0019347828946252139
1743758792.8296273,0.0019318980294741825
1743758792.8306034,0.0019310566104717983
1743758792.8315794,0.001923844447594219
1743758792.8325555,0.0019233636367357138
1743758792.8335314,0.0018901876874988502
1743758792.8345072,0.001879489645897108
1743758792.8354833,0.0018419863989336965
1743758792.8364596,0.0017919820696491483
1743758792.8374355,0.0018247974107421332
1743758792.8384113,0.001865546131000455
1743758792.8393874,0.0018590551844106338
1743758792.8403635,0.0018354954523438754
1743758792.8413393,0.0018311681546173278
1743758792.8423152,0.0018522036296769334
1743758792.8432913,0.0018742007264535498
1743758792.8442676,0.0018800906594702395
1743758792.8452435,0.0018768451861753289
1743758792.8462193,0.0018814128893311288
1743758792.8471954,0.001886701808774687
1743758792.8481715,0.0018821341056188868
1743758792.8491473,0.0018704744423001338
1743758792.8501232,0.0018478763319503863
1743758792.8510995,0.0018365772767755123
1743758792.8520756,0.001834173222482986
1743758792.8530514,0.0018252782216006385
1743758792.8540273,0.0018207105184448382
1743758792.8550034,0.0018231145727373645
1743758792.8559794,0.0018189074777254434
1743758792.8569553,0.001812296328420996
1743758792.8579314,0.0017966699755195747
1743758792.8589075,0.0017746728787429585
1743758792.8598835,0.001755200038973495
1743758792.8608594,0.001745704024518016
1743758792.8618352,0.0017286352390410787
1743758792.8628113,0.001718057400153963
1743758792.8637874,0.001721182670734247
1743758792.8647635,0.0017407757132183368
1743758792.8657393,0.001774552676028332
1743758792.8667154,0.0017942659212270484
1743758792.8676915,0.0018323701817635912
1743758792.8686674,0.0018864614033454342
1743758792.8696432,0.0019288929616085243
1743758792.8706193,0.001949087017665746
1743758792.8715956,0.0019459617470854616
1743758792.8725715,0.0019379081652054983
1743758792.8735473,0.0019369465434884879
1743758792.8745234,0.0019364657326299826
1743758792.8754995,0.0019401920167833985
1743758792.8764753,0.001942716273790551
1743758792.8774512,0.0019405526249272774
1743758792.8784275,0.0019470435715170985
1743758792.8794036,0.001956178977828699
1743758792.8803794,0.0019583426266919723
1743758792.8813553,0.001964713370567167
1743758792.8823314,0.0019678386411474515
1743758792.8833075,0.0019572608022603356
1743758792.8842833,0.0019482455986633616
1743758792.8852592,0.0019471637742317248
1743758792.8862355,0.0019530537072484143
1743758792.8872116,0.0019538951262507986
1743758792.8881874,0.0019577416131188407
1743758792.8891633,0.0019540153289654247
1743758792.8901393,0.0019546163425385563
1743758792.8911154,0.0019553375588263144
1743758792.8920913,0.0019565395859725775
1743758792.8930674,0.001958943640265104
1743758792.8940434,0.0019523324909606567
1743758792.8950195,0.001959184045694357
1743758792.8959954,0.0019656749922841777
1743758792.8969712,0.001969882087296099
1743758792.8979473,0.0019736083714495148
1743758792.8989236,0.00196952147915222
1743758792.8998995,0.0019734881687348883
1743758792.9008753,0.0019742093850226464
1743758792.9018514,0.001972165938873999
1743758792.9028275,0.001964593167852541
1743758792.9038033,0.0019623093162746408
1743758792.9047792,0.0019508900583851407
1743758792.9057553,0.001948365801377988
1743758792.9067316,0.0019494476258096248
1743758792.9077075,0.0019465627606585932
1743758792.9086833,0.0019375475570616195
1743758792.9096594,0.001923844447594219
1743758792.9106355,0.0019162716765727611
1743758792.9116113,0.0019072564729757872
1743758792.9125872,0.001906054445829524
1743758792.9135635,0.0019059342431148978
1743758792.9145396,0.001906415053973403
1743758792.9155154,0.0019091797164098084
1743758792.9164913,0.0019059342431148978
1743758792.9174674,0.0019141080277094876
1743758792.9184434,0.0019124251897047189
1743758792.9194193,0.0019032897833931187
1743758792.9203954,0.0018972796476618029
1743758792.9213715,0.0018930725526498818
1743758792.9223475,0.0018994432965250766
1743758792.9233234,0.001912906000563224
1743758792.9242992,0.0019225222177333297
1743758792.9252753,0.0019237242448795929
1743758792.9262514,0.0019131464059924767
1743758792.9272275,0.00191206458156084
1743758792.9282033,0.0019315374213303034
1743758792.9291794,0.0019502890448120092
1743758792.9301555,0.001946081949800088
1743758792.9311314,0.001950649652955888
1743758792.9321072,0.0019502890448120092
1743758792.9330833,0.0019369465434884879
1743758792.9340596,0.0019306960023279193
1743758792.9350355,0.001920719177013935
1743758792.9360113,0.0019092999191244345
1743758792.9369874,0.0018935533635083869
1743758792.9379635,0.0018911493092158606
1743758792.9389393,0.001916512082002014
1743758792.9399152,0.0019405526249272774
1743758792.9408915,0.0019274505290330088
1743758792.9418676,0.0019243252584527245
1743758792.9428434,0.001921560596016319
1743758792.9438193,0.0019084585001220504
1743758792.9447954,0.0019072564729757872
1743758792.9457715,0.0019195171498676718
1743758792.9467473,0.001929133367037777
1743758792.9477232,0.0019190363390091663
1743758792.9486995,0.00192348383945034
1743758792.9496756,0.0019242050557380982
1743758792.9506514,0.0019225222177333297
1743758792.9516273,0.0019201181634408034
1743758792.9526033,0.001912906000563224
1743758792.9535794,0.0019058140404002715
1743758792.9545553,0.0019005251209567135
1743758792.9555314,0.0018965584313740448
1743758792.9565074,0.0018895866739257186
1743758792.9574835,0.0018877836332063238
1743758792.9584594,0.0018887452549233342
1743758792.9594352,0.0018893462684964658
1743758792.9604113,0.0018870624169185658
1743758792.9613876,0.0018936735662230134
1743758792.9623635,0.0018910291065012345
1743758792.9633393,0.0018895866739257186
1743758792.9643154,0.0018897068766403448
1743758792.9652915,0.0018835765381944025
1743758792.9662673,0.0018923513363621237
1743758792.9672432,0.0018910291065012345
1743758792.9682193,0.001893192755364508
1743758792.9691956,0.0018993230938104504
1743758792.9701715,0.0018955968096570344
1743758792.9711473,0.0018922311336474977
1743758792.9721234,0.0018925917417913765
1743758792.9730995,0.001889466471211092
1743758792.9740753,0.0018854997816284238
1743758792.9750512,0.0018891058630672133
1743758792.9760275,0.0018933129580791343
1743758792.9770036,0.0018892260657818398
1743758792.9779794,0.001891990728218245
1743758792.9789553,0.0018969190395179238
1743758792.9799314,0.0018876634304916973
1743758792.9809074,0.0018798502540409868
1743758792.9818833,0.0018800906594702395
1743758792.9828594,0.0018887452549233342
1743758792.9838355,0.0018823745110481394
1743758792.9848115,0.00188790383592095
1743758792.9857874,0.0018885048494940817
1743758792.9867632,0.0018911493092158606
1743758792.9877393,0.0019040109996808765
1743758792.9887154,0.0019184353254360347
1743758792.9896915,0.0019304555968986668
1743758792.9906673,0.0019326192457619403
1743758792.9916434,0.001934422286481335
1743758792.9926195,0.0019299747860401612
1743758792.9935954,0.001927570731747635
1743758792.9945712,0.0019270899208891296
1743758792.9955473,0.0019237242448795929
1743758792.9965236,0.0019248060693112298
1743758792.9974995,0.0019240848530234717
1743758792.9984753,0.0019244454611673505
1743758792.9994514,0.0019216807987309454
1743758793.0004275,0.0019195171498676718
1743758793.0014033,0.0019201181634408034
1743758793.0023792,0.00192119998787244
1743758793.0033555,0.001920719177013935
1743758793.0043316,0.001915069649426498
1743758793.0053074,0.001917714109148277
1743758793.0062833,0.0019096605272683137
1743758793.0072594,0.0019061746485441505
1743758793.0082355,0.0019061746485441505
1743758793.0092113,0.0019038907969662503
1743758793.0101871,0.0019089393109805557
1743758793.0111635,0.0019112231625584557
1743758793.0121396,0.0019138676222802348
1743758793.0131154,0.0019089393109805557
1743758793.0140913,0.0019131464059924767
1743758793.0150673,0.0019221616095894507
1743758793.0160434,0.001921560596016319
1743758793.0170195,0.0019242050557380982
1743758793.0179954,0.0019156706629996295
1743758793.0189714,0.0019185555281506612
1743758793.0199475,0.0019191565417237928
1743758793.0209234,0.0019145888385679927
1743758793.0218992,0.0019079776892635453
1743758793.0228753,0.001908698905551303
1743758793.0238516,0.0019031695806784926
1743758793.0248275,0.0019019675535322295
1743758793.0258033,0.001898481674808066
1743758793.0267794,0.0019037705942516242
1743758793.0277555,0.0019023281616761083
1743758793.0287313,0.0019017271481029767
1743758793.0297072,0.0018972796476618029
1743758793.0306833,0.0018983614720934395
1743758793.0316596,0.0018941543770815185
1743758793.0326355,0.0018918705255036184
1743758793.0336113,0.0018913897146451133
1743758793.0345874,0.0018881442413502026
1743758793.0355635,0.0018847785653406657
1743758793.0365393,0.0018835765381944025
1743758793.0375152,0.0018841775517675341
1743758793.0384915,0.0018768451861753289
1743758793.0394676,0.0018755229563144392
1743758793.0404434,0.0018737199155950445
1743758793.0414193,0.0018696330232977497
1743758793.0423954,0.0018668683608613443
1743758793.0433714,0.0018697532260123762
1743758793.0443473,0.001868671401580739
1743758793.0453234,0.0018695128205831234
1743758793.0462995,0.0018681905907222338
1743758793.0472755,0.0018717966721610235
1743758793.0482514,0.0018689118070099918
1743758793.0492272,0.0018681905907222338
1743758793.0502033,0.001865546131000455
1743758793.0511794,0.0018679501852929814
1743758793.0521555,0.001864464306568818
1743758793.0531313,0.001862901671278676
1743758793.0541074,0.0018604976169861497
1743758793.0550835,0.0018615794414177864
1743758793.0560594,0.0018577329545497441
1743758793.0570352,0.0018579733599789969
1743758793.0580113,0.001860738022415402
1743758793.0589876,0.0018697532260123762
1743758793.0599635,0.0018624208604201707
1743758793.0609393,0.0018603774142715232
1743758793.0619154,0.001857612751835118
1743758793.0628915,0.001857252143691239
1743758793.0638673,0.001854968292113339
1743758793.0648432,0.0018529248459646915
1743758793.0658195,0.001853886467681702
1743758793.0667956,0.0018579733599789969
1743758793.0677714,0.0018585743735521285
1743758793.0687473,0.0018653057255712023
1743758793.0697234,0.0018660269418589602
1743758793.0706995,0.0018696330232977497
1743758793.0716753,0.0018681905907222338
1743758793.0726511,0.0018691522124392446
1743758793.0736275,0.0018669885635759706
1743758793.0746036,0.0018683107934368602
1743758793.0755794,0.0018668683608613443
1743758793.0765553,0.0018627814685640495
1743758793.0775313,0.001854247075825581
1743758793.0785074,0.0018435490342238387
1743758793.0794835,0.0018351348441999966
1743758793.0804594,0.001820950923874091
1743758793.0814354,0.0018109740985601064
1743758793.0824115,0.0017995548406706063
1743758793.0833874,0.0017922224750784009
1743758793.0843632,0.0017888567990688642
1743758793.0853393,0.001796790178234201
1743758793.0863156,0.0018091710578407116
1743758793.0872915,0.001805805381831175
1743758793.0882673,0.001791140650646764
1743758793.0892434,0.0017818850416205375
1743758793.0902195,0.0017705859864456637
1743758793.0911953,0.0017655374724313583
1743758793.0921712,0.0017596475394146688
1743758793.0931473,0.0017470262543789054
1743758793.0941236,0.0017580849041245268
1743758793.0950994,0.0017846497040569429
1743758793.0960753,0.0018161428152890383
1743758793.0970514,0.0018500399808136598
1743758793.0980275,0.001887543227777071
1743758793.0990033,0.001926008096457493
1743758793.0999792,0.001927570731747635
1743758793.1009555,0.0019100211354121926
1743758793.1019316,0.0018952362015131556
1743758793.1029074,0.001887543227777071
1743758793.1038833,0.0018808118757579972
1743758793.1048594,0.0018769653888899551
1743758793.1058354,0.0018643441038541915
1743758793.1068113,0.0018612188332739075
1743758793.1077874,0.0018618198468470391
1743758793.1087635,0.001860738022415402
1743758793.1097395,0.0018632622794225548
1743758793.1107154,0.001867829982578355
1743758793.1116912,0.0018683107934368602
1743758793.1126673,0.0018680703880076075
1743758793.1136434,0.0018713158613025182
1743758793.1146195,0.0018683107934368602
1743758793.1155953,0.0018632622794225548
1743758793.1165714,0.0018609784278446548
1743758793.1175475,0.0018570117382619865
1743758793.1185234,0.0018553289002572178
1743758793.1194992,0.0018583339681228757
1743758793.1204753,0.00186145923870316
1743758793.1214516,0.0018630218739933023
1743758793.1224275,0.0018711956585878919
1743758793.1234033,0.001883816943623655
1743758793.1243794,0.0018877836332063238
1743758793.1253555,0.0018967988368032975
1743758793.1263313,0.0019016069453883502
1743758793.1273072,0.0019038907969662503
1743758793.1282835,0.0018893462684964658
1743758793.1292596,0.0018791290377532287
1743758793.1302354,0.0018760037671729445
1743758793.1312113,0.0018647047119980708
1743758793.1321874,0.0018598966034130179
1743758793.1331635,0.0018561703192596021
1743758793.1341393,0.0018553289002572178
1743758793.1351151,0.0018560501165449756
1743758793.1360915,0.001857252143691239
1743758793.1370676,0.0018618198468470391
1743758793.1380434,0.0018662673472882127
1743758793.1390193,0.001857612751835118
1743758793.1399953,0.0018540066703963286
1743758793.1409714,0.0018548480893987125
1743758793.1419475,0.0018561703192596021
1743758793.1429234,0.0018610986305592813
1743758793.1438994,0.0018651855228565759
1743758793.1448755,0.0018739603210242972
1743758793.1458514,0.0018816532947603815
1743758793.1468272,0.0018816532947603815
1743758793.1478033,0.0018895866739257186
1743758793.1487796,0.0018900674847842237
1743758793.1497555,0.0018898270793549713
1743758793.1507313,0.001894274579796145
1743758793.1517074,0.0018922311336474977
1743758793.1526835,0.0018870624169185658
1743758793.1536593,0.001883696740909029
1743758793.1546352,0.0018858603897723026
1743758793.1556113,0.0018892260657818398
1743758793.1565876,0.0018883846467794554
1743758793.1575634,0.0018911493092158606
1743758793.1585393,0.0018864614033454342
1743758793.1595154,0.0018755229563144392
1743758793.1604915,0.0018786482268947236
1743758793.1614673,0.0018698734287270022
1743758793.1624432,0.0018673491717198498
1743758793.1634195,0.0018603774142715232
1743758793.1643956,0.0018620602522762917
1743758793.1653714,0.001864824914712697
1743758793.1663473,0.0018662673472882127
1743758793.1673234,0.0018683107934368602
1743758793.1682994,0.0018693926178684971
1743758793.1692753,0.0018793694431824815
1743758793.1702514,0.0018840573490529079
1743758793.1712275,0.001886822011489313
1743758793.1722035,0.0018853795789137975
1743758793.1731794,0.0018885048494940817
1743758793.1741552,0.0018824947137627659
1743758793.1751313,0.001891630120074366
1743758793.1761074,0.0018899472820695974
1743758793.1770835,0.001888264444064829
1743758793.1780593,0.001895115998798529
1743758793.1790354,0.001894635187940024
1743758793.1800115,0.0018948755933692765
1743758793.1809874,0.0018934331607937608
1743758793.1819632,0.0018848987680552922
1743758793.1829393,0.0018744411318828025
1743758793.1839156,0.0018692724151538706
1743758793.1848915,0.0018641036984249392
1743758793.1858673,0.0018654259282858286
1743758793.1868434,0.001865906739144334
1743758793.1878195,0.0018631420767079283
1743758793.1887953,0.0018598966034130179
1743758793.1897712,0.001860257211556897
1743758793.1907475,0.0018598966034130179
1743758793.1917236,0.0018537662649670758
1743758793.1926994,0.001849799575384407
1743758793.1936753,0.001854968292113339
1743758793.1946514,0.00185689153554736
1743758793.1956275,0.0018604976169861497
1743758793.1966033,0.0018490783590966494
1743758793.1975791,0.0018391015337826649
1743758793.1985555,0.0018378995066364017
1743758793.1995316,0.0018239559917397489
1743758793.2005074,0.0018197488967278278
1743758793.2014832,0.001811454909418612
1743758793.2024593,0.0017947467320855535
1743758793.2034354,0.0017954679483733115
1743758793.2044115,0.0018007568678168695
1743758793.2053874,0.0018044831519702853
1743758793.2063634,0.0018207105184448382
1743758793.2073395,0.0018229943700227385
1743758793.2083154,0.0018393419392119176
1743758793.2092912,0.0018653057255712023
1743758793.2102673,0.0018940341743668924
1743758793.2112436,0.0019076170811196662
1743758793.2122195,0.0019017271481029767
1743758793.2131953,0.0019002847155274608
1743758793.2141714,0.0018886250522087077
1743758793.2151475,0.0018767249834607024
1743758793.2161233,0.0018725178884487813
1743758793.2170992,0.001871676469446397
1743758793.2180753,0.0018529248459646915
1743758793.2190516,0.001840303560928928
1743758793.2200274,0.001837538898492523
1743758793.2210033,0.001841385385360565
1743758793.2219794,0.001838740925638786
1743758793.2229555,0.0018397025473557965
1743758793.2239313,0.001839822750070423
1743758793.2249072,0.0018305671410441962
1743758793.2258835,0.0018286438976101752
1743758793.2268596,0.0018323701817635912
1743758793.2278354,0.0018321297763343387
1743758793.2288113,0.0018287641003248015
1743758793.2297873,0.0018263600460322752
1743758793.2307634,0.0018241963971690016
1743758793.2317393,0.0018205903157302121
1743758793.2327154,0.0018219125455911013
1743758793.2336915,0.0018326105871928438
1743758793.2346675,0.00182587923517377
1743758793.2356434,0.0018094114632699644
1743758793.2366192,0.0018008770705314958
1743758793.2375953,0.001790659839788259
1743758793.2385714,0.0017779183520378692
1743758793.2395475,0.0017695041620140268
1743758793.2405233,0.0017656576751459846
1743758793.2414994,0.00176613848600449
1743758793.2424755,0.0017776779466086164
1743758793.2434514,0.00179486693480018
1743758793.2444272,0.0018083296388383275
1743758793.2454033,0.0018255186270298908
1743758793.2463796,0.0018324903844782175
1743758793.2473555,0.0018332116007659753
1743758793.2483313,0.001826720654176154
1743758793.2493074,0.0018216721401618488
1743758793.2502835,0.001817945856008433
1743758793.2512593,0.0018066468008335593
1743758793.2522352,0.0017916214615052693
1743758793.2532115,0.001785851731203206
1743758793.2541876,0.0017803224063303955
1743758793.2551634,0.0017771971357501111
1743758793.2561393,0.0017838082850545587
1743758793.2571154,0.0017860921366324586
1743758793.2580914,0.001790659839788259
1743758793.2590673,0.0017966699755195747
1743758793.2600434,0.0017985932189535957
1743758793.2610195,0.001796309367375696
1743758793.2619956,0.0017958285565171904
1743758793.2629714,0.0018044831519702853
1743758793.2639472,0.0018191478831546962
1743758793.2649233,0.0018238357890251226
1743758793.2658994,0.0018244368025982542
1743758793.2668755,0.001820950923874091
1743758793.2678514,0.0018199893021570805
1743758793.2688274,0.001807007408977438
1743758793.2698035,0.0018035215302532749
1743758793.2707794,0.001793424502224664
1743758793.2717552,0.0017822456497644165
1743758793.2727313,0.0017792405818987586
1743758793.2737076,0.0017488292950983
1743758793.2746835,0.0017043542906865624
1743758793.2756593,0.0016705773278765672
1743758793.2766354,0.001648580231099951
1743758793.2776115,0.0016380023922128349
1743758793.2785873,0.001632713472769277
1743758793.2795632,0.0016299488103328718
1743758793.2805393,0.0016452145550904143
1743758793.2815156,0.0016963007088065991
1743758793.2824914,0.001746906051664279
1743758793.2834673,0.0017788799737548796
1743758793.2844434,0.0017985932189535957
1743758793.2854195,0.00179715078637808
1743758793.2863953,0.0017972709890927063
1743758793.2873712,0.0017893376099273692
1743758793.2883475,0.0017758749058892217
1743758793.2893236,0.0017626526072803267
1743758793.2902994,0.001753637403683353
1743758793.2912753,0.0017448626055156316
1743758793.2922513,0.0017393332806428209
1743758793.2932274,0.0017334433476261313
1743758793.2942033,0.0017356069964894053
1743758793.2951794,0.0017420979430792264
1743758793.2961555,0.0017518343629639582
1743758793.2971315,0.001763614228997337
1743758793.2981074,0.0017573636878367687
1743758793.2990832,0.001743179767510863
1743758793.3000593,0.0017430595647962368
1743758793.3010354,0.0017524353765370898
1743758793.3020115,0.0017524353765370898
1743758793.3029873,0.0017627728099949532
1743758793.3039634,0.0017833274741960534
1743758793.3049395,0.0017993144352413538
1743758793.3059154,0.0018110943012747329
1743758793.3068912,0.0018353752496292491
1743758793.3078673,0.0018377793039217754
1743758793.3088436,0.0018366974794901385
1743758793.3098195,0.0018269610596054068
1743758793.3107953,0.0018160226125744118
1743758793.3117714,0.001813738760996512
1743758793.3127475,0.0018040023411117802
1743758793.3137233,0.0017909002452175112
1743758793.3146992,0.0017848901094861954
1743758793.3156755,0.0017901790289297536
1743758793.3166516,0.0017875345692079745
1743758793.3176274,0.001785851731203206
1743758793.3186033,0.001776716324891606
1743758793.3195794,0.0017633738235680848
1743758793.3205554,0.0017565222688343844
1743758793.3215313,0.0017475070652374107
1743758793.3225074,0.0017437807810839947
1743758793.3234835,0.0017352463883455263
1743758793.3244596,0.0017320009150506158
1743758793.3254354,0.0017267119956070576
1743758793.3264112,0.0017234665223121472
1743758793.3273873,0.0017277938200386943
1743758793.3283634,0.0017297170634727156
1743758793.3293395,0.0017307988879043527
1743758793.3303154,0.0017387322670696893
1743758793.3312914,0.0017491899032421791
1743758793.3322675,0.0017577242959806475
1743758793.3332434,0.0017651768642874795
1743758793.3342192,0.0017758749058892217
1743758793.3351953,0.0017790001764695059
1743758793.3361716,0.0017872941637787217
1743758793.3371475,0.0018035215302532749
1743758793.3381233,0.0018040023411117802
1743758793.3390994,0.0018068872062628116
1743758793.3400755,0.0018109740985601064
1743758793.3410513,0.001816383220718291
1743758793.3420272,0.0018229943700227385
1743758793.3430033,0.001818667072296191
1743758793.3439796,0.0018103730849869748
1743758793.3449554,0.001807368017121317
1743758793.3459313,0.0018014780841046274
1743758793.3469074,0.0017999154488144854
1743758793.3478835,0.0017954679483733115
1743758793.3488593,0.0017822456497644165
1743758793.3498352,0.0017735910543113216
1743758793.3508115,0.00177070618916029
1743758793.3517876,0.0017669799050068742
1743758793.3527634,0.001763494026282711
1743758793.3537393,0.00175928693127079
1743758793.3547153,0.0017662586887191162
1743758793.3556914,0.0017615707828486898
1743758793.3566673,0.0017625324045657004
1743758793.3576434,0.001762412201851074
1743758793.3586195,0.0017559212552612528
1743758793.3595955,0.001751473754820079
1743758793.3605714,0.0017407757132183368
1743758793.3615472,0.001725389765746168
1743758793.3625233,0.0016989451685283782
1743758793.3634994,0.0016837996264854622
1743758793.3644755,0.0016835592210562094
1743758793.3654513,0.001681876383051441
1743758793.3664274,0.0016758662473201251
1743758793.3674035,0.0016737025984568516
1743758793.3683794,0.0016786309097565303
1743758793.3693552,0.0016848814509170989
1743758793.3703313,0.001688727937785141
1743758793.3713076,0.0016929350327970624
1743758793.3722835,0.001699185573957631
1743758793.3732593,0.0017096432101301204
1743758793.3742354,0.001721182670734247
1743758793.3752115,0.0017255099684607945
1743758793.3761873,0.0017262311847485523
1743758793.3771632,0.001736328212777163
1743758793.3781395,0.001737049429064921
1743758793.3791156,0.0017316403069067366
1743758793.3800914,0.0017231059141682682
1743758793.3810673,0.0017203412517318628
1743758793.3820434,0.001716614967578447
1743758793.3830194,0.0017112058454202626
1743758793.3839953,0.0017103644264178785
1743758793.3849714,0.0017202210490172365
1743758793.3859475,0.0017125280752811522
1743758793.3869236,0.001713970507856668
1743758793.3878994,0.0017133694942835364
1743758793.3888752,0.0017127684807104048
1743758793.3898513,0.001707239155837594
1743758793.3908274,0.0016934158436555675
1743758793.3918035,0.0016785107070419042
1743758793.3927794,0.001673582395742225
1743758793.3937554,0.00167310158488372
1743758793.3947315,0.001664807597574504
1743758793.3957074,0.0016597590835601987
1743758793.3966832,0.0016591580699870671
1743758793.3976593,0.0016545903668312668
1743758793.3986356,0.0016479792175268194
1743758793.3996115,0.0016684136790132934
1743758793.4005873,0.0016786309097565303
1743758793.4015634,0.0016720197604520829
1743758793.4025395,0.001651585298965609
1743758793.4035153,0.0016452145550904143
1743758793.4044912,0.0016416084736516243
1743758793.4054675,0.001646296379522051
1743758793.4064436,0.0016606005025625826
1743758793.4074194,0.0016559125966921565
1743758793.4083953,0.001664807597574504
1743758793.4093714,0.0016821167884806937
1743758793.4103475,0.0017293564553288367
1743758793.4113233,0.0017756345004599691
1743758793.4122992,0.0017905396370736324
1743758793.4132755,0.0018161428152890383
1743758793.4142516,0.0018435490342238387
1743758793.4152274,0.0018436692369384652
1743758793.4162033,0.0018418661962190705
1743758793.4171793,0.0018469147102333756
1743758793.4181554,0.001840303560928928
1743758793.4191313,0.0018259994378883964
1743758793.4201074,0.0018119357202771172
1743758793.4210835,0.0017871739610640957
1743758793.4220595,0.0017590465258415372
1743758793.4230354,0.001753637403683353
1743758793.4240112,0.0017451030109448843
1743758793.4249873,0.001729596860758089
1743758793.4259634,0.0017270726037509367
1743758793.4269395,0.0017235867250267733
1743758793.4279153,0.001724908954887663
1743758793.4288914,0.0017162543594345678
1743758793.4298675,0.0017094028047008678
1743758793.4308434,0.001717336183866205
1743758793.4318192,0.001733323144911505
1743758793.4327953,0.0017380110507819316
1743758793.4337716,0.0017341645639138894
1743758793.4347475,0.0017140907105712942
1743758793.4357233,0.0017237069277413997
1743758793.4366994,0.0017408959159329633
1743758793.4376755,0.0017548394308296161
1743758793.4386513,0.0017512333493908266
1743758793.4396272,0.001748348484239795
1743758793.4406035,0.0017359676046332841
1743758793.4415796,0.0017207018598757416
1743758793.4425554,0.0017146917241444258
1743758793.4435313,0.0016870450997803728
1743758793.4445074,0.0016620429351380985
1743758793.4454834,0.0016520661098241142
1743758793.4464593,0.001630429621191377
1743758793.4474354,0.0015996577262470397
1743758793.4484115,0.0015877576574990341
1743758793.4493876,0.001629227594045114
1743758793.4503634,0.001659999488989451
1743758793.4513392,0.0016810349640490566
1743758793.4523153,0.0016960603033773466
1743758793.4532914,0.0016904107757899096
1743758793.4542675,0.0016643267867159986
1743758793.4552433,0.0016325932700546506
1743758793.4562194,0.0016241790800308085
1743758793.4571955,0.0016170871198678558
1743758793.4581714,0.0016151638764338345
1743758793.4591472,0.0016264629316087083
1743758793.4601233,0.001643411514371019
1743758793.4610996,0.0016642065840013723
1743758793.4620755,0.0016632449622843617
1743758793.4630513,0.001676587463607883
1743758793.4640274,0.001665168205718383
1743758793.4650035,0.0016275447560403454
1743758793.4659793,0.0015980950909568973
1743758793.4669552,0.0016318720537668926
1743758793.4679315,0.0016420892845101299
1743758793.4689076,0.0016301892157621243
1743758793.4698834,0.0016216548230236557
1743758793.4708593,0.0016228568501699188
1743758793.4718354,0.0016487004338145773
1743758793.4728115,0.001673221787598346
1743758793.4737873,0.0016911319920776676
1743758793.4747632,0.001717456386580831
1743758793.4757395,0.0017419777403646
1743758793.4767156,0.0017749132841722113
1743758793.4776914,0.0017763557167477268
1743758793.4786673,0.001751353552105453
1743758793.4796433,0.0017656576751459846
1743758793.4806194,0.0017821254470497903
1743758793.4815953,0.001819388288583949
1743758793.4825714,0.0018238357890251226
1743758793.4835474,0.0018091710578407116
1743758793.4845235,0.0017991942325267273
1743758793.4854994,0.0017984730162389695
1743758793.4864752,0.0018119357202771172
1743758793.4874513,0.0018007568678168695
1743758793.4884276,0.0017890972044981165
1743758793.4894035,0.00177070618916029
1743758793.4903793,0.0017888567990688642
1743758793.4913554,0.0017565222688343844
1743758793.4923315,0.0017133694942835364
