1743759067.6268616,0.002726558175868771
1743759067.6278374,0.002726558175868771
1743759067.6288135,0.002726558175868771
1743759067.6297896,0.002726558175868771
1743759067.6307657,0.002726558175868771
1743759067.6317415,0.002726558175868771
1743759067.6327176,0.002726558175868771
1743759067.6336937,0.002726558175868771
1743759067.6346695,0.002695065064636675
1743759067.6356454,0.002688814523476107
1743759067.6366215,0.0026966276999268175
1743759067.6375978,0.0026955458754951804
1743759067.6385736,0.002695185267351302
1743759067.6395495,0.0026978297270730807
1743759067.6405256,0.0026998731732217275
1743759067.6415017,0.0026939832402050386
1743759067.6424775,0.0026903771587662487
1743759067.6434534,0.0026874922936152173
1743759067.6444297,0.0026807609415961434
1743759067.6454058,0.0026842468203203064
1743759067.6463816,0.002689295334334612
1743759067.6473575,0.0026884539153322275
1743759067.6483335,0.0026941034429196647
1743759067.6493096,0.002690136753336996
1743759067.6502855,0.0026820831714570326
1743759067.6512613,0.002674149792291696
1743759067.6522377,0.0026713851298552902
1743759067.6532137,0.0026648941832654693
1743759067.6541896,0.0026566001959562532
1743759067.6551654,0.002644820329922874
1743759067.6561415,0.0026419354647718427
1743759067.6571176,0.0026331606666041216
1743759067.6580935,0.002624145463007148
1743759067.6590695,0.0026162120838418104
1743759067.6600456,0.002615010056695547
1743759067.6610217,0.0026184959354197106
1743759067.6619976,0.0026288333688775744
1743759067.6629734,0.002643618302776611
1743759067.6639495,0.002636406139899032
1743759067.6649258,0.0026123655969737688
1743759067.6659017,0.0025831563373195734
1743759067.6668775,0.0025689724169936676
1743759067.6678536,0.002561640051401462
1743759067.6688297,0.0025353156568982986
1743759067.6698055,0.002521492344716272
1743759067.6707814,0.002513679168265561
1743759067.6717575,0.002508270046107377
1743759067.6727338,0.0024944467339253506
1743759067.6737096,0.002475815313158271
1743759067.6746855,0.002460309162971476
1743759067.6756616,0.0024577849059643233
1743759067.6766376,0.0024618717982616183
1743759067.6776135,0.0024860325439015085
1743759067.6785893,0.0025344742378959144
1743759067.6795657,0.0025629622812623517
1743759067.6805418,0.002580992688456299
1743759067.6815176,0.002582555323746442
1743759067.6824934,0.0025862816078998574
1743759067.6834695,0.0025915705273434155
1743759067.6844456,0.0025890462703362627
1743759067.6854215,0.0025889260676216362
1743759067.6863976,0.0025841179590365836
1743759067.6873736,0.0026021483662305315
1743759067.6883497,0.0025886856621923837
1743759067.6893256,0.0025856805943267258
1743759067.6903014,0.002589166473050889
1743759067.6912775,0.002576785593444378
1743759067.6922536,0.0025517834288021042
1743759067.6932297,0.002532550994461893
1743759067.6942055,0.002514280181838693
1743759067.6951816,0.0025092316678243876
1743759067.6961577,0.0025312287646010036
1743759067.6971335,0.0025583945781065516
1743759067.6981094,0.0025894068784801418
1743759067.6990855,0.0025996241092233786
1743759067.7000618,0.0026141686376931635
1743759067.7010376,0.0026157312729833053
1743759067.7020135,0.002614529245837042
1743759067.7029896,0.0026289535715922005
1743759067.7039657,0.0026422960729157213
1743759067.7049415,0.002638689991476932
1743759067.7059174,0.0026359253290405265
1743759067.7068937,0.002606235258527826
1743759067.7078698,0.0025701744441399307
1743759067.7088456,0.0025457732930707884
1743759067.7098215,0.0025277428858768406
1743759067.7107975,0.0025272620750183355
1743759067.7117736,0.0025049043700978405
1743759067.7127495,0.002483628489608982
1743759067.7137253,0.002452736391950018
1743759067.7147017,0.00242328672686657
1743759067.7156777,0.0024366292281900914
1743759067.7166536,0.0024760557185875237
1743759067.7176294,0.002515722614414209
1743759067.7186055,0.00253591667047143
1743759067.7195816,0.0025491389690803254
1743759067.7205575,0.0025571925509602885
1743759067.7215335,0.002568732011564415
1743759067.7225096,0.0025841179590365836
1743759067.7234857,0.002599744311938005
1743759067.7244616,0.002606475663957079
1743759067.7254374,0.00258880586490701
1743759067.7264135,0.002569092619708294
1743759067.7273898,0.002541566198058867
1743759067.7283657,0.0025177660605628562
1743759067.7293415,0.0024921628823474508
1743759067.7303176,0.0024651172715565287
1743759067.7312937,0.0024653576769857817
1743759067.7322695,0.002474613286012008
1743759067.7332454,0.002471968826290229
1743759067.7342215,0.002470045582856208
1743759067.7351978,0.0024805032190286977
1743759067.7361736,0.0024551404462425444
1743759067.7371495,0.00244059591777276
1743759067.7381256,0.002430498889744149
1743759067.7391016,0.002410425036401554
1743759067.7400775,0.00241415132055497
1743759067.7410533,0.0024324221331781704
1743759067.7420297,0.0024385524716241127
1743759067.7430058,0.0024077805766797755
1743759067.7439816,0.0023718399650065063
1743759067.7449574,0.002356934828392843
1743759067.7459335,0.0023272447578801423
1743759067.7469096,0.0023292882040287896
1743759067.7478855,0.0023279659741679
1743759067.7488616,0.0023185901624270472
1743759067.7498376,0.002335899353333237
1743759067.7508137,0.002349362057371385
1743759067.7517896,0.0023575358419659744
1743759067.7527654,0.0023786915197402062
1743759067.7537415,0.0024202816590009123
1743759067.7547176,0.002446966661647955
1743759067.7556937,0.002455260648957171
1743759067.7566695,0.002483388084179729
1743759067.7576456,0.002486272949330761
1743759067.7586217,0.0024708870018585924
1743759067.7595975,0.0024740122724388764
1743759067.7605734,0.0024800224081701927
1743759067.7615495,0.0024970911936471295
1743759067.7625258,0.0025110347085437823
1743759067.7635016,0.0025170448442750986
1743759067.7644775,0.002511275113973035
1743759067.7654536,0.002515842817128835
1743759067.7664297,0.0025031013293784453
1743759067.7674055,0.0024551404462425444
1743759067.7683814,0.002417516996564507
1743759067.7693577,0.0023750854383014167
1743759067.7703338,0.002322316446580463
1743759067.7713096,0.002314383067415126
1743759067.7722855,0.0023193113787148053
1743759067.7732615,0.002304406242101142
1743759067.7742376,0.002266301981564599
1743759067.7752135,0.0022255532613062773
1743759067.7761893,0.002180717648750661
1743759067.7771657,0.0021447770370773916
1743759067.7781417,0.0021263860217395647
1743759067.7791176,0.002132516360185507
1743759067.7800934,0.002174827715733971
1743759067.7810695,0.0022517574530948148
1743759067.7820456,0.002306329485535163
1743759067.7830215,0.0023220760411512107
1743759067.7839975,0.0023386640157696424
1743759067.7849736,0.0023587378691122375
1743759067.7859497,0.002379292533313338
1743759067.7869256,0.0023688348971408484
1743759067.7879014,0.0023550115849588216
1743759067.7888775,0.0023503236790883954
1743759067.7898538,0.0023425105026376844
1743759067.7908297,0.002313181040268863
1743759067.7918055,0.002275797996020078
1743759067.7927816,0.0022713504955789044
1743759067.7937577,0.0022767596177370886
1743759067.7947335,0.0022861354294779414
1743759067.7957094,0.0022962324575065522
1743759067.7966855,0.002308853742542316
1743759067.7976618,0.0023367407723356216
1743759067.7986376,0.0023496024628006373
1743759067.7996135,0.0023541701659564374
1743759067.8005896,0.0023490014492275058
1743759067.8015656,0.0023752056410160432
1743759067.8025415,0.002407660373965149
1743759067.8035173,0.0024368696336193444
1743759067.8044937,0.0024616313928323657
1743759067.8054698,0.0024793011918824346
1743759067.8064456,0.0025076690325342454
1743759067.8074214,0.0025099528841121457
1743759067.8083975,0.00248663355747464
1743759067.8093736,0.002453457608237776
1743759067.8103495,0.0024464858507894497
1743759067.8113256,0.0024427595666360337
1743759067.8123016,0.0024524959865207655
1743759067.8132777,0.0024634344335517605
1743759067.8142536,0.0024654778797004078
1743759067.8152294,0.002448889905081976
1743759067.8162055,0.0024377110526217285
1743759067.8171816,0.002452375783806139
1743759067.8181577,0.0024571838923911917
1743759067.8191335,0.0024517747702330075
1743759067.8201096,0.002423647335010449
1743759067.8210857,0.0024018906436630858
1743759067.8220615,0.002374845032872164
1743759067.8230374,0.002346837800364232
1743759067.8240135,0.0023334952990407107
1743759067.8249898,0.0022949102276456626
1743759067.8259656,0.002258368602399262
1743759067.8269415,0.0022403381952053143
1743759067.8279176,0.0022386553572005456
1743759067.8288937,0.002219062314716456
1743759067.8298695,0.0022170188685678087
1743759067.8308454,0.0022120905572681295
1743759067.8318217,0.002208965286687845
1743759067.8327978,0.002205840016107561
1743759067.8337736,0.002183241905757813
1743759067.8347495,0.002176630756453366
1743759067.8357255,0.0021648508904199867
1743759067.8367016,0.0021602831872641866
1743759067.8376775,0.002162807444271339
1743759067.8386533,0.0021477821049430495
1743759067.8396297,0.002147541699513797
1743759067.8406057,0.0021760297428802342
1743759067.8415816,0.0022036763672442874
1743759067.8425574,0.002237573532768909
1743759067.8435335,0.0022839717806146676
1743759067.8445096,0.0023449145569302107
1743759067.8454854,0.002370157127001738
1743759067.8464615,0.002380494560459601
1743759067.8474376,0.0023726813840088904
1743759067.8484137,0.0023413084754914213
1743759067.8493896,0.00229466982221641
1743759067.8503654,0.00226594137342072
1743759067.8513415,0.0022533200883849565
1743759067.8523178,0.0022440644793587303
1743759067.8532937,0.0022415402223515775
1743759067.8542695,0.0022498342096607935
1743759067.8552456,0.0022589696159723937
1743759067.8562217,0.002266902995137731
1743759067.8571975,0.0022683454277132465
1743759067.8581734,0.002266902995137731
1743759067.8591495,0.002278803063885736
1743759067.8601258,0.0022970738765089363
1743759067.8611016,0.002314743675559005
1743759067.8620775,0.0022895011054874783
1743759067.8630536,0.0022967132683650577
1743759067.8640296,0.002329047798599537
1743759067.8650055,0.0023449145569302107
1743759067.8659813,0.002341188272776795
1743759067.8669577,0.0023114982022640943
1743759067.8679338,0.0022755575905908255
1743759067.8689096,0.002240578600634567
1743759067.8698854,0.0021988682586592347
1743759067.8708615,0.002145378050650523
1743759067.8718376,0.0021233809538739067
1743759067.8728135,0.0020951333159367224
1743759067.8737895,0.0020599139205512112
1743759067.8747656,0.002019285403007516
1743759067.8757417,0.0020168813487149895
1743759067.8767176,0.002002937833818336
1743759067.8776934,0.002006303509827873
1743759067.8786695,0.002031425877184774
1743759067.8796456,0.002055466420110037
1743759067.8806217,0.0021183324398596015
1743759067.8815975,0.002191415690352403
1743759067.8825736,0.0022535604938142095
1743759067.8835497,0.0023265235415923843
1743759067.8845255,0.002349362057371385
1743759067.8855014,0.002383379425610633
1743759067.8864775,0.002395519899787891
1743759067.8874538,0.002380374357744975
1743759067.8884296,0.0024021310490923383
1743759067.8894055,0.0023746046274429116
1743759067.8903816,0.002320994216719574
1743759067.8913577,0.002208965286687845
1743759067.8923335,0.00211773142628647
1743759067.8933094,0.002041402702498758
1743759067.8942857,0.0019648335732817936
1743759067.8952618,0.001974329587737273
1743759067.8962376,0.0019910377650703306
1743759067.8972135,0.0020182035785758787
1743759067.8981895,0.0020417633106426373
1743759067.8991656,0.0020494562843787214
1743759067.9001415,0.0020198864165806474
1743759067.9011173,0.002058471487975695
1743759067.9020936,0.002151388186381839
1743759067.9030697,0.002237813938198162
1743759067.9040456,0.0022726727254397936
1743759067.9050214,0.0022767596177370886
1743759067.9059975,0.0022372129246250303
1743759067.9069736,0.002238054343627414
1743759067.9079497,0.0022414200196369514
1743759067.9089255,0.0022665423869938518
1743759067.9099016,0.002320032595002563
1743759067.9108777,0.002397202737792659
1743759067.9118536,0.002464396055268771
1743759067.9128294,0.002493364909493714
1743759067.9138055,0.00248891740905254
1743759067.9147818,0.002443240377494539
1743759067.9157577,0.0024189594291400226
1743759067.9167335,0.0023640267885557957
1743759067.9177096,0.00230608908010591
1743759067.9186857,0.0022479109662267723
1743759067.9196615,0.002169057985431908
1743759067.9206374,0.002114726358420812
1743759067.9216135,0.0020380370264892213
1743759067.9225898,0.0019807003316124673
1743759067.9235656,0.0019660356004280568
1743759067.9245415,0.0020014954012428205
1743759067.9255176,0.002047893649088579
1743759067.9264936,0.002084555477049606
1743759067.9274695,0.00208443527433498
1743759067.9284453,0.0020975373702292487
1743759067.9294217,0.002156797308540023
1743759067.9303977,0.002176991364597245
1743759067.9313736,0.0022838515779000416
1743759067.9323494,0.0023654692211313114
1743759067.9333255,0.0023666712482775746
1743759067.9343016,0.0022970738765089363
1743759067.9352775,0.0022505554259485516
1743759067.9362535,0.0021923773120694134
1743759067.9372296,0.0021784337971727605
1743759067.9382057,0.002204758191675924
1743759067.9391816,0.0022754373878761994
1743759067.9401574,0.0023658298292751905
1743759067.9411335,0.002430378687029523
1743759067.9421096,0.0024048957115287437
1743759067.9430857,0.0023402266510597846
1743759067.9440615,0.0022721919145812885
1743759067.9450376,0.0022055996106783086
1743759067.9460137,0.0021470608886552914
1743759067.9469895,0.0021102788579796384
1743759067.9479654,0.0020742180435917427
1743759067.9489415,0.0020226510790170523
1743759067.9499178,0.0019993317523795467
1743759067.9508936,0.002010390402125168
1743759067.9518695,0.002060995744982848
1743759067.9528456,0.002120736494152128
1743759067.9538217,0.00213960832034846
1743759067.9547975,0.00213960832034846
1743759067.9557734,0.0021346800090487807
1743759067.9567497,0.002099580816377896
1743759067.9577258,0.0020638806101338793
1743759067.9587016,0.0020450087839375478
1743759067.9596775,0.0020481340545178317
1743759067.9606535,0.0020351521613381895
1743759067.9616296,0.001992961008504352
1743759067.9626055,0.001989955940638694
1743759067.9635813,0.0020082267532618944
1743759067.9645576,0.0020471724328008215
1743759067.9655337,0.0020991000055193905
1743759067.9665096,0.002150666970094081
1743759067.9674854,0.0021880500143428663
1743759067.9684615,0.0022709898874350254
1743759067.9694376,0.002334937731616227
1743759067.9704137,0.0023444337460717057
1743759067.9713895,0.0023474388139373636
1743759067.9723656,0.002343351921640069
1743759067.9733417,0.002304887052959647
1743759067.9743176,0.00227507677973232
1743759067.9752934,0.002222427990725993
1743759067.9762695,0.0021932187310717975
1743759067.9772458,0.0021280688597443333
1743759067.9782217,0.0020212086464415366
1743759067.9791975,0.0019251666774551086
1743759067.9801736,0.0018709552531586393
1743759067.9811497,0.001841745993504444
1743759067.9821255,0.0018306873437588227
1743759067.9831014,0.0018347742360561175
1743759067.9840775,0.0018954766069424081
1743759067.9850538,0.0019584628294065987
1743759067.9860296,0.001997047900801647
1743759067.9870055,0.0020278197957459844
1743759067.9879816,0.00206712608342879
1743759067.9889576,0.00208671912591288
1743759067.9899335,0.002102946492387433
1743759067.9909093,0.0021682165664295237
1743759067.9918857,0.0021870883926258552
1743759067.9928617,0.0021654519039931183
1743759067.9938376,0.0021412911583532286
1743759067.9948134,0.002118092034430349
1743759067.9957895,0.0021164091964255807
1743759067.9967656,0.0021065525738262225
1743759067.9977415,0.0020926090589295696
1743759067.9987175,0.002054985609251532
1743759067.9996936,0.001997168103516273
1743759068.0006697,0.001959184045694357
1743759068.0016456,0.0019385091787786299
1743759068.0026214,0.0018937937689376396
1743759068.0035975,0.001851963224247681
1743759068.0045736,0.001845111669513981
1743759068.0055497,0.001825158018886012
1743759068.0065255,0.0018268408568907805
1743759068.0075016,0.0018707148477293866
1743759068.0084777,0.0018356156550585017
1743759068.0094535,0.0017927032859369064
1743759068.0104294,0.001808449841552954
1743759068.0114055,0.0018805714703287446
1743759068.0123818,0.00198322458861962
1743759068.0133576,0.0020308248636116424
1743759068.0143335,0.0020751796653087533
1743759068.0153096,0.002010751010269047
1743759068.0162857,0.001983104385904994
1743759068.0172615,0.0020450087839375478
1743759068.0182374,0.00211184149326978
1743759068.0192137,0.002096575748512238
1743759068.0201898,0.0020459704056545584
1743759068.0211656,0.0019768538447444252
1743759068.0221415,0.0019199979607261769
1743759068.0231175,0.001924926272025856
1743759068.0240936,0.0019947640492237466
1743759068.0250695,0.002028901620177621
1743759068.0260453,0.0020624381775583636
1743759068.0270216,0.0020892433829200327
1743759068.0279977,0.002168096363714897
1743759068.0289736,0.0022213461662943562
1743759068.0299494,0.0021791550134605186
1743759068.0309255,0.002138165887772944
1743759068.0319016,0.002140690144780097
1743759068.0328777,0.00213960832034846
1743759068.0338535,0.002155835686823013
1743759068.0348296,0.0021465800777967863
1743759068.0358057,0.002160042781834934
1743759068.0367815,0.002152950821671981
1743759068.0377574,0.002102225276099675
1743759068.0387335,0.0020632795965607477
1743759068.0397098,0.0020624381775583636
1743759068.0406857,0.002107634398257859
1743759068.0416615,0.0021617256198397023
1743759068.0426376,0.002203796569958914
1743759068.0436137,0.0021753085265924766
1743759068.0445895,0.002090084801922417
1743759068.0455654,0.0020109914156982997
1743759068.0465415,0.002042364324215769
1743759068.0475178,0.0021195344670058647
1743759068.0484936,0.002137685076914439
1743759068.0494695,0.0021213375077252595
1743759068.0504456,0.0020695301377213165
1743759068.0514216,0.0020267379713143473
1743759068.0523975,0.0019708437090131094
1743759068.0533733,0.0019252868801697349
1743759068.0543497,0.0018333318034806018
1743759068.0553257,0.001789578015356622
1743759068.0563016,0.0017753940950307164
1743759068.0572774,0.0017309190906189787
1743759068.0582535,0.0017118068589933942
1743759068.0592296,0.0017328423340529997
1743759068.0602055,0.0017900588262151273
1743759068.0611815,0.0018713158613025182
1743759068.0621576,0.0020254157414534577
1743759068.0631337,0.002148383118516181
1743759068.0641096,0.0021872085953404817
1743759068.0650854,0.002247430155368267
1743759068.0660615,0.0022890202946289732
1743759068.0670376,0.0023050072556742734
1743759068.0680137,0.002346116584076474
1743759068.0689895,0.0023718399650065063
1743759068.0699656,0.002381215776747359
1743759068.0709417,0.0023440731379278266
1743759068.0719175,0.0023217154330073316
1743759068.0728934,0.0022985163090844525
1743759068.0738695,0.0022195431255749615
1743759068.0748458,0.0021031868978166855
1743759068.0758216,0.0019540153289654247
1743759068.0767975,0.001837659101207149
1743759068.0777736,0.001805805381831175
1743759068.0787497,0.001819388288583949
1743759068.0797255,0.0018691522124392446
1743759068.0807014,0.001886341200630808
1743759068.0816777,0.001935864719056851
1743759068.0826538,0.00204885527080559
1743759068.0836296,0.002127828454315081
1743759068.0846055,0.00213275676561476
1743759068.0855815,0.0020725352055869744
1743759068.0865576,0.001937427354346993
1743759068.0875335,0.0018316489654758331
1743759068.0885093,0.00188790383592095
1743759068.0894856,0.0019840660076220046
1743759068.0904617,0.002129751697749102
1743759068.0914376,0.002261854481123425
1743759068.0924134,0.0022827697534684045
1743759068.0933895,0.0022766394150224626
1743759068.0943656,0.002243343263070972
1743759068.0953417,0.0022959920520772997
1743759068.0963175,0.0023083729316838103
1743759068.0972936,0.0022813273208928887
1743759068.0982697,0.002242501844068588
1743759068.0992455,0.002237573532768909
1743759068.1002214,0.0023325336773237
1743759068.1011975,0.0024615111901177393
1743759068.1021738,0.002494687139354603
1743759068.1031497,0.0024089826038260387
1743759068.1041255,0.0023000789443745943
1743759068.1051016,0.0022672636032816094
1743759068.1060777,0.0022284381264573087
1743759068.1070535,0.0022036763672442874
1743759068.1080294,0.002174106499446213
1743759068.1090055,0.0021661731202808764
1743759068.1099818,0.0021817994731822975
1743759068.1109576,0.0022120905572681295
1743759068.1119335,0.0022247118423038927
1743759068.1129096,0.0022562049535359884
1743759068.1138856,0.002254642318245846
1743759068.1148615,0.0021989884613738612
1743759068.1158373,0.002114846561135438
1743759068.1168137,0.0020728958137308535
1743759068.1177897,0.0020570290554001794
1743759068.1187656,0.002064481623707011
1743759068.1197414,0.0020876807476298905
1743759068.1207175,0.0020940514915050853
1743759068.1216936,0.0021153273719939436
1743759068.1226695,0.002113524331274549
1743759068.1236455,0.0020998212218071486
1743759068.1246216,0.0020441673649351636
1743759068.1255977,0.00197637303388592
1743759068.1265736,0.0019429566792198037
1743759068.1275494,0.002024333917021821
1743759068.1285255,0.002104869735821454
1743759068.1295016,0.00221894211200183
1743759068.1304777,0.0024128290906940807
1743759068.1314535,0.002477137543019161
1743759068.1324296,0.0024664395014174184
1743759068.1334057,0.0023616227342632694
1743759068.1343815,0.0022755575905908255
1743759068.1353574,0.00223492907304713
1743759068.1363335,0.0021939399473595556
1743759068.1373098,0.0021499457538063232
1743759068.1382856,0.0021238617647324123
1743759068.1392615,0.0021130435204160434
1743759068.1402376,0.0021274678461712018
1743759068.1412137,0.002182881297613934
1743759068.1421895,0.0022706292792911463
1743759068.1431653,0.0022839717806146676
1743759068.1441417,0.0022658211707060937
1743759068.1451178,0.0022213461662943562
1743759068.1460936,0.002140930550209349
1743759068.1470695,0.002120736494152128
1743759068.1480455,0.0021382860904875707
1743759068.1490216,0.002188410622486745
1743759068.1499975,0.0022154562332776665
1743759068.1509736,0.0022327654241838563
1743759068.1519496,0.002290823335348368
1743759068.1529257,0.002357415639251348
1743759068.1539016,0.0024622324064054973
1743759068.1548774,0.0024806234217433242
1743759068.1558535,0.0024089826038260387
1743759068.1568296,0.002295511241218794
1743759068.1578057,0.00229238597063851
1743759068.1587815,0.0023372215831941267
1743759068.1597576,0.002411146252689312
1743759068.1607337,0.0025302671428839934
1743759068.1617095,0.0025885654594777576
1743759068.1626854,0.0026231838412901372
1743759068.1636615,0.0026229434358608847
1743759068.1646378,0.0025461339012146675
1743759068.1656137,0.0024720890290048556
1743759068.1665895,0.002475334502299766
1743759068.1675656,0.002491321463345066
1743759068.1685417,0.0024419181476336496
1743759068.1695175,0.0023700369242871115
1743759068.1704934,0.0023344569207577213
1743759068.1714694,0.0022361311001933932
1743759068.1724458,0.002199589474946993
1743759068.1734216,0.0021874490007697347
1743759068.1743975,0.0021733852831584554
1743759068.1753736,0.002176991364597245
1743759068.1763496,0.0022262744775940354
1743759068.1773255,0.0023111375941202157
1743759068.1783013,0.002511996330260793
1743759068.1792777,0.002690497361480875
1743759068.1802537,0.0027692301395611137
1743759068.1812296,0.00267727506287198
1743759068.1822054,0.0025326711971765197
1743759068.1831815,0.0024688435557099447
1743759068.1841576,0.002448168688794218
1743759068.1851335,0.002414031117840344
1743759068.1861095,0.0023949188862147593
1743759068.1870856,0.002337341785908753
1743759068.1880617,0.0023469580030788585
1743759068.1890376,0.002395279494358638
1743759068.1900134,0.0024339847684683126
1743759068.1909895,0.0024681223394221866
1743759068.1919656,0.0024437211883530444
1743759068.1929417,0.00245658287881806
1743759068.1939175,0.002443480782923792
1743759068.1948936,0.0024399949041996284
1743759068.1958697,0.0025159630198434615
1743759068.1968455,0.002669221480992017
1743759068.1978214,0.0027080469578163176
1743759068.1987975,0.0027096095931064598
1743759068.1997738,0.00272331270257386
1743759068.2007496,0.0026998731732217275
1743759068.2017255,0.0026799195225937593
1743759068.2027016,0.0026660962104117325
1743759068.2036777,0.00262114039514149
1743759068.2046535,0.002594816000638326
1743759068.2056293,0.0025600774161113203
1743759068.2066057,0.0025326711971765197
1743759068.2075818,0.002487835584620903
1743759068.2085576,0.002532070183603388
1743759068.2095335,0.0026085191101057263
1743759068.2105095,0.00276117655768115
1743759068.2114856,0.002824883996433099
1743759068.2124615,0.0027980787910714296
1743759068.2134376,0.0026663366158409855
1743759068.2144136,0.0025938543789213154
1743759068.2153897,0.002555149104811641
1743759068.2163656,0.0024696849747123293
1743759068.2173414,0.0023628247614095326
1743759068.2183175,0.0022887798891997207
1743759068.2192936,0.002343351921640069
1743759068.2202697,0.0024542990272401603
1743759068.2212455,0.002518727682279867
1743759068.2222216,0.0025773866070175097
1743759068.2231977,0.0026757124275818382
1743759068.2241735,0.0027983191965006825
1743759068.2251494,0.002833298186456941
1743759068.2261255,0.0028070939946684033
1743759068.2271018,0.002768268517844103
1743759068.2280777,0.002700353984080233
1743759068.2290535,0.0026826841850301642
1743759068.2300296,0.002678356887303617
1743759068.2310057,0.0026871316854713383
1743759068.2319815,0.0027230722971446075
1743759068.2329574,0.002768268517844103
1743759068.2339334,0.002793270682486377
1743759068.2349098,0.002820676901421177
1743759068.2358856,0.0029173198839807374
1743759068.2368615,0.0029351098857454323
1743759068.2378376,0.002922248195280416
1743759068.2388136,0.0028842641374585
1743759068.2397895,0.00284051034933452
1743759068.2407653,0.002836543659751851
1743759068.2417417,0.002776923113297198
1743759068.2427177,0.0027200672292789496
1743759068.2436936,0.0027344915550341076
1743759068.2446694,0.0028419527819100354
1743759068.2456455,0.0028808984614489626
1743759068.2466216,0.0028746479202883947
1743759068.2475975,0.002828970888730393
1743759068.2485735,0.0028123829141119615
1743759068.2495496,0.0028140657521167297
1743759068.2505257,0.0028580599456699625
1743759068.2515016,0.0028974864360673948
1743759068.2524774,0.002893519746484726
1743759068.2534535,0.0029184017084123736
1743759068.2544296,0.002934388669457674
1743759068.2554057,0.002904097585371842
1743759068.2563815,0.0028451982552049463
1743759068.2573576,0.0027960353449227823
1743759068.2583337,0.0027806493974506137
1743759068.2593095,0.0027656240581223237
1743759068.2602854,0.002761056354966524
1743759068.2612615,0.0027942323042033875
1743759068.2622378,0.002823681969286835
1743759068.2632136,0.002845438660634199
1743759068.2641895,0.002884744948317005
1743759068.2651656,0.0028985682604990314
1743759068.2661417,0.0028262062262939883
1743759068.2671175,0.002738217839187523
1743759068.2680933,0.002717663174986423
1743759068.2690697,0.002708647971389449
1743759068.2700458,0.002717663174986423
1743759068.2710216,0.002801684872510219
1743759068.2719975,0.002937393737323332
1743759068.2729735,0.003007712325379728
1743759068.2739496,0.0030281467868662026
1743759068.2749255,0.0029673242132652856
1743759068.2759016,0.0028864277863217733
1743759068.2768776,0.0028387073086151254
1743759068.2778537,0.0027778847350142083
1743759068.2788296,0.0027762018970094397
1743759068.2798054,0.002802766696941856
1743759068.2807815,0.0028659933248352996
1743759068.2817576,0.0028995298822160425
1743759068.2827337,0.0029050592070888528
1743759068.2837095,0.002921887587136537
1743759068.2846856,0.002912030964537179
1743759068.2856617,0.002874287312144515
1743759068.2866375,0.0028671953519815627
1743759068.2876134,0.002870080217132594
1743759068.2885895,0.0028679165682693204
1743759068.2895658,0.002885586367319389
1743759068.2905416,0.0028964046116357577
1743759068.2915175,0.002898928868642911
1743759068.2924936,0.002919122924700132
1743759068.2934697,0.0029068622478082475
1743759068.2944455,0.0027657442608369502
1743759068.2954214,0.0026939832402050386
1743759068.2963977,0.002680640738881517
1743759068.2973738,0.0025934937707774368
1743759068.2983496,0.0025031013293784453
1743759068.2993255,0.00246475666341265
1743759068.3003016,0.002592171540916547
1743759068.3012776,0.002848804336643736
1743759068.3022535,0.00315520105622622
1743759068.3032293,0.003318796950832639
1743759068.3042057,0.0032630228912460275
1743759068.3051817,0.0031443828119098517
1743759068.3061576,0.003069616723412282
1743759068.3071334,0.0030226174619933915
1743759068.3081095,0.002939557386186606
1743759068.3090856,0.0028532518370849094
1743759068.3100615,0.002802045480654098
1743759068.3110375,0.002801925277939472
1743759068.3120136,0.002821999131282067
1743759068.3129897,0.002815988995550751
1743759068.3139656,0.002823681969286835
1743759068.3149414,0.0028483235257852307
1743759068.3159175,0.002843515417200178
1743759068.3168936,0.0028013242643663405
1743759068.3178697,0.0027533633812304396
1743759068.3188455,0.002770071558563498
1743759068.3198216,0.0027896646010475874
1743759068.3207977,0.002817551630840893
1743759068.3217735,0.002896885422494263
1743759068.3227494,0.0029681656322676692
1743759068.3237255,0.0029371533318940796
1743759068.3247018,0.0029311431961627638
1743759068.3256776,0.0029257340740045795
1743759068.3266535,0.0029223683979950426
1743759068.3276296,0.0029265754930069636
1743759068.3286057,0.0029476109680665694
1743759068.3295815,0.002969007051270054
1743759068.3305573,0.0029978557027803706
1743759068.3315337,0.002980426309159554
1743759068.3325098,0.0029403988051889905
1743759068.3334856,0.002881138866878215
1743759068.3344615,0.0028170708199823876
1743759068.3354375,0.0027854575060356664
1743759068.3364136,0.002768629125987982
1743759068.3373895,0.002814786968404488
1743759068.3383656,0.0028954429899187475
1743759068.3393416,0.0029363119128916954
1743759068.3403177,0.002865752919406047
1743759068.3412936,0.0027551664219498343
1743759068.3422694,0.002697709524358454
1743759068.3432455,0.002668981075562764
1743759068.3442216,0.0026442193163497426
1743759068.3451977,0.002634482896465011
1743759068.3461735,0.0026477051950739056
1743759068.3471496,0.0028388275113297515
1743759068.3481257,0.003184049707736537
1743759068.3491015,0.003213619575534611
1743759068.3500774,0.0030448549641992604
1743759068.3510535,0.002955784752661159
1743759068.3520298,0.002967204010550659
1743759068.3530056,0.003057957060093529
1743759068.3539815,0.003109283619238967
1743759068.3549576,0.003034517530741397
1743759068.3559337,0.002940999818762122
1743759068.3569095,0.0028211577122796826
1743759068.3578854,0.0026955458754951804
1743759068.3588617,0.0026158514756979318
1743759068.3598378,0.0026010665417988943
1743759068.3608136,0.002603951406949926
1743759068.3617895,0.0026102019481104946
1743759068.3627656,0.0026546769525222324
1743759068.3637416,0.0027681483151294766
1743759068.3647175,0.002888230827041168
1743759068.3656933,0.0029141946134004526
1743759068.3666697,0.00282776886158413
1743759068.3676457,0.002736775406612008
1743759068.3686216,0.0027438673667749603
1743759068.3695974,0.0028895530569020577
1743759068.3705735,0.0030125204339647806
1743759068.3715496,0.0030800743595847716
1743759068.3725255,0.0030470186130625346
1743759068.3735015,0.002973093943567349
1743759068.3744776,0.0029158774514052212
1743759068.3754537,0.0028679165682693204
1743759068.3764296,0.0028490447420729884
1743759068.3774054,0.0028694792035594626
1743759068.3783815,0.002914795626973584
1743759068.3793578,0.0029228492088535477
1743759068.3803337,0.0029254936685753265
1743759068.3813095,0.002930902790733511
1743759068.3822856,0.0029516978603638644
1743759068.3832617,0.0029015733283646893
1743759068.3842375,0.0028199556851334195
1743759068.3852134,0.002794713115061893
1743759068.3861895,0.002753723989374318
1743759068.3871658,0.002726678378583397
1743759068.3881416,0.00273701581204126
1743759068.3891175,0.0026778760764451116
1743759068.3900936,0.0026213808005707425
1743759068.3910697,0.0026474647896446535
1743759068.3920455,0.002712013647398986
1743759068.3930213,0.002719225810276565
1743759068.3939977,0.002719346012991191
1743759068.3949738,0.002803127305085735
1743759068.3959496,0.0029245320468583164
1743759068.3969254,0.002927777520153227
1743759068.3979015,0.002869719608988715
1743759068.3988776,0.002841592173766157
1743759068.3998535,0.002837144673324983
1743759068.4008296,0.00286238724339651
1743759068.4018056,0.002888230827041168
1743759068.4027817,0.002869839811703341
1743759068.4037576,0.0028169506172677616
1743759068.4047334,0.002775600883436308
1743759068.4057095,0.002674149792291696
1743759068.4066856,0.002604552420523058
1743759068.4076617,0.0025962584332138417
1743759068.4086375,0.0025848391753243417
1743759068.4096136,0.002641094045769458
1743759068.4105897,0.00273244810888546
1743759068.4115655,0.002802045480654098
1743759068.4125414,0.0028744075148591417
1743759068.4135175,0.002910107721103158
1743759068.4144938,0.0029129925862541894
1743759068.4154696,0.002903015760940205
1743759068.4164455,0.0029171996812661105
1743759068.4174216,0.0029203249518463953
1743759068.4183977,0.0029203249518463953
1743759068.4193735,0.002910588531961663
1743759068.4203494,0.002869960014417968
1743759068.4213257,0.002841592173766157
1743759068.4223018,0.0028213981177089356
1743759068.4232776,0.0028039687240881193
1743759068.4242535,0.0027969969666397925
1743759068.4252295,0.002800723250793209
1743759068.4262056,0.00280721419738303
1743759068.4271815,0.002790265614620719
1743759068.4281573,0.0027329289197439654
1743759068.4291337,0.0026854488474665696
1743759068.4301097,0.002618736340848963
1743759068.4310856,0.00255779356453342
1743759068.4320614,0.002478820381023929
1743759068.4330375,0.0024390332824826178
1743759068.4340136,0.0024615111901177393
1743759068.4349895,0.00252449741258193
1743759068.4359655,0.0025836371481780785
1743759068.4369416,0.0027259571622956385
1743759068.4379177,0.00279218885805474
1743759068.4388936,0.00273473196046336
1743759068.4398694,0.0026289535715922005
1743759068.4408455,0.0025964988386430947
1743759068.4418218,0.0026201787734244793
1743759068.4427977,0.002668740670133512
1743759068.4437735,0.0027039600655190225
1743759068.4447496,0.0027888231820452033
1743759068.4457257,0.002848804336643736
1743759068.4467015,0.0028010838589370875
1743759068.4476774,0.0027115328365404806
1743759068.4486535,0.0026246262738656525
1743759068.4496298,0.0026061150558132
1743759068.4506056,0.0026120049888298893
1743759068.4515815,0.002597700865789358
1743759068.4525576,0.002588084648619252
1743759068.4535336,0.002569934038710678
1743759068.4545095,0.0025757037690127414
1743759068.4554853,0.002611764583400637
1743759068.4564617,0.0026622497235436905
1743759068.4574378,0.0027436269613457073
1743759068.4584136,0.0028014444670809665
1743759068.4593894,0.0027771635187264503
1743759068.4603655,0.002696026686353686
1743759068.4613416,0.0025954170142114576
1743759068.4623175,0.00252678126415983
1743759068.4632936,0.002508630654251256
1743759068.4642696,0.0025147609926971983
1743759068.4652457,0.0024944467339253506
1743759068.4662216,0.0025193286958529984
1743759068.4671974,0.0026100817453958685
1743759068.4681735,0.002682563982315538
1743759068.4691496,0.0027052822953799126
1743759068.4701257,0.0027229520944299806
1743759068.4711015,0.0026914589831978854
1743759068.4720776,0.00265443654709298
1743759068.4730537,0.0026392910050500634
1743759068.4740295,0.0025912099191995365
1743759068.4750054,0.0025428884279197566
1743759068.4759815,0.002509712478682893
1743759068.4769578,0.002468963758424571
1743759068.4779336,0.002425810983873723
1743759068.4789095,0.0024200412535716597
1743759068.4798856,0.00240273206266547
1743759068.4808617,0.0023767682763061854
1743759068.4818375,0.0023827784120375012
1743759068.4828134,0.0023856632771885327
1743759068.4837897,0.002387225912478675
1743759068.4847658,0.002479541597311687
1743759068.4857416,0.002560317821540573
1743759068.4867175,0.002617053502844195
1743759068.4876935,0.0026740295895770695
1743759068.4886696,0.002665976007697106
1743759068.4896455,0.0026234242467193893
1743759068.4906213,0.0025901280947678994
1743759068.4915977,0.002556711740101783
1743759068.4925737,0.0025238963990087985
1743759068.4935496,0.0025202903175700086
1743759068.4945254,0.0025133185601216826
1743759068.4955015,0.0025087508569658825
1743759068.4964776,0.002468242542136813
1743759068.4974535,0.002479541597311687
1743759068.4984295,0.0024903598416280556
1743759068.4994056,0.002481464840745708
1743759068.5003817,0.002470045582856208
1743759068.5013576,0.0024604293656861026
1743759068.5023334,0.0024487697023673496
1743759068.5033095,0.0024407161204873865
1743759068.5042858,0.0024040542925263596
1743759068.5052617,0.0023628247614095326
1743759068.5062375,0.0023301296230311738
1743759068.5072136,0.002269427252144883
1743759068.5081897,0.0022813273208928887
1743759068.5091655,0.002285173807760931
1743759068.5101414,0.0022822889426098994
1743759068.5111175,0.0022535604938142095
1743759068.5120938,0.0022691868467156306
1743759068.5130696,0.002289621308202105
1743759068.5140455,0.0023587378691122375
1743759068.5150216,0.0023830188174667538
1743759068.5159976,0.002373402600296648
1743759068.5169735,0.002392995642780738
1743759068.5179493,0.002411506860833191
1743759068.5189257,0.002406458346818886
1743759068.5199018,0.0023378225967672583
1743759068.5208776,0.002306329485535163
1743759068.5218534,0.002305247661103526
1743759068.5228295,0.002374845032872164
1743759068.5238056,0.0025270216695890825
1743759068.5247815,0.0026465031679276424
1743759068.5257576,0.0026225828277170057
1743759068.5267336,0.0025424076170612515
1743759068.5277097,0.0025168044388458456
1743759068.5286856,0.0025031013293784453
1743759068.5296614,0.002463674838981013
1743759068.5306375,0.0024095836173991703
1743759068.5316136,0.0023738834111551536
1743759068.5325897,0.0023629449641241586
1743759068.5335655,0.0023119790131226
1743759068.5345416,0.002189853055062261
1743759068.5355177,0.002089724193778538
1743759068.5364935,0.0020827524363302113
1743759068.5374694,0.0021130435204160434
1743759068.5384455,0.0021031868978166855
1743759068.5394218,0.0021160485882817013
1743759068.5403976,0.0022142542061314033
1743759068.5413735,0.0023083729316838103
1743759068.5423496,0.0024849507194698714
1743759068.5433257,0.0024201614562862858
1743759068.5443015,0.002280365699175878
1743759068.5452774,0.002292025362494631
1743759068.5462537,0.0023194315814294313
1743759068.5472298,0.002283370767041536
1743759068.5482056,0.0022584888051138882
1743759068.5491815,0.0022491129933730355
1743759068.5501575,0.002254281710101967
1743759068.5511336,0.002245026101075741
1743759068.5521095,0.0022724323200105415
1743759068.5530853,0.002393716859068496
1743759068.5540617,0.0024890376117671664
1743759068.5550377,0.002534714643325167
1743759068.5560136,0.002547215725646304
1743759068.5569894,0.002477137543019161
1743759068.5579655,0.0024127088879794542
1743759068.5589416,0.002377128884450064
1743759068.5599174,0.00235441057138569
1743759068.5608935,0.002355612598531953
1743759068.5618696,0.0023190709732855527
1743759068.5628457,0.002305968877391284
1743759068.5638216,0.002319551784144058
1743759068.5647974,0.002357055031107469
1743759068.5657735,0.0023825380066082483
1743759068.5667498,0.0023616227342632694
1743759068.5677257,0.002363425774982664
1743759068.5687015,0.0023693157079993535
1743759068.5696776,0.0023226770547243422
1743759068.5706537,0.00224081900606382
1743759068.5716295,0.002171822647868313
1743759068.5726054,0.002128309265173586
1743759068.5735815,0.002186246973623471
1743759068.5745578,0.002293467795070147
1743759068.5755336,0.002316907324422279
1743759068.5765095,0.002302242593237868
1743759068.5774856,0.0023284467850264055
1743759068.5784616,0.0023830188174667538
1743759068.5794375,0.002412588685264828
1743759068.5804133,0.002406458346818886
1743759068.5813897,0.0023866248989055433
1743759068.5823658,0.002356934828392843
1743759068.5833416,0.002358136855539106
1743759068.5843174,0.0023828986147521277
1743759068.5852935,0.0023969623323634066
1743759068.5862696,0.0024196806454277807
1743759068.5872455,0.0024053765223872488
1743759068.5882215,0.002370277329716364
1743759068.5891976,0.0023492418546567583
1743759068.5901737,0.0023932360482099907
1743759068.5911496,0.0023923946292076065
1743759068.5921254,0.0024028522653800964
1743759068.5931015,0.002428455443595502
1743759068.5940776,0.0024260513893029755
1743759068.5950537,0.002425810983873723
1743759068.5960295,0.0023907117912028383
1743759068.5970056,0.0023142628647005
1743759068.5979817,0.0022550029263897252
1743759068.5989575,0.002225072450447772
1743759068.5999334,0.0022376937354835354
1743759068.6009095,0.0023229174601535948
1743759068.6018858,0.002366430842848322
1743759068.6028616,0.002338063002196511
1743759068.6038375,0.002344313543357079
1743759068.6048136,0.0024351867956145757
1743759068.6057897,0.0024955285583569873
1743759068.6067655,0.0025000962615127874
1743759068.6077414,0.002501899302232182
1743759068.6087177,0.002501899302232182
1743759068.6096938,0.0024999760587981613
1743759068.6106696,0.0024982932207933926
1743759068.6116455,0.0025188478849944933
1743759068.6126215,0.002509832681397519
1743759068.6135976,0.0024986538289372717
1743759068.6145735,0.0024979326126495136
1743759068.6155493,0.0025027407212345663
1743759068.6165257,0.00246932436656845
1743759068.6175017,0.002408381590252907
1743759068.6184776,0.0023084931343984364
1743759068.6194534,0.0022729131308690466
1743759068.6204295,0.002220264341862719
1743759068.6214056,0.00218889143334525
1743759068.6223817,0.0022221875852967404
1743759068.6233575,0.002297674890082068
1743759068.6243336,0.0024066987522481384
1743759068.6253097,0.0024668001095612974
1743759068.6262856,0.002454539432669413
1743759068.6272614,0.002392635034636859
1743759068.6282375,0.002384100641898391
1743759068.6292138,0.0023681136808530903
1743759068.6301897,0.0023848218581861485
1743759068.6311655,0.00237400361386978
1743759068.6321416,0.0024086219956821592
1743759068.6331177,0.0024551404462425444
1743759068.6340935,0.0024680021367075606
1743759068.6350694,0.002560798632399078
1743759068.6360455,0.0026648941832654693
1743759068.6370218,0.0026213808005707425
1743759068.6379976,0.002515001398126451
1743759068.6389735,0.002477137543019161
1743759068.6399496,0.0024387928770533652
1743759068.6409256,0.0024234069295811967
1743759068.6419015,0.002400929021946075
1743759068.6428773,0.002397202737792659
1743759068.6438537,0.002387947128766433
1743759068.6448298,0.002399246183941307
1743759068.6458056,0.002456342473388808
1743759068.6467814,0.0024738920697242503
1743759068.6477575,0.0025253388315843142
1743759068.6487336,0.0025531056586629935
1743759068.6497095,0.0024599485548275975
1743759068.6506855,0.002437470647192476
1743759068.6516616,0.0024720890290048556
1743759068.6526377,0.002515722614414209
1743759068.6536136,0.002504062951095456
1743759068.6545894,0.00252906511573773
1743759068.6555655,0.002566808768130394
1743759068.6565416,0.0025540672803800045
1743759068.6575177,0.0025076690325342454
1743759068.6584935,0.002474252677868129
1743759068.6594696,0.002451894972947634
1743759068.6604457,0.0024191998345692756
1743759068.6614215,0.002417877604708386
1743759068.6623974,0.0024146321314134755
1743759068.6633735,0.0024805032190286977
1743759068.6643498,0.0025734199174348416
1743759068.6653256,0.002611764583400637
1743759068.6663015,0.0025210115338577667
1743759068.6672776,0.0024883163954794083
1743759068.6682537,0.0025212519392870197
1743759068.6692295,0.002578468431449147
1743759068.6702054,0.0026109231643982526
1743759068.6711817,0.002637848572474548
1743759068.6721578,0.002622342422287753
1743759068.6731336,0.0026183757327050846
1743759068.6741095,0.0026302758014530897
1743759068.6750855,0.0026146494485516686
1743759068.6760616,0.002612245394259142
1743759068.6770375,0.002609240326393484
1743759068.6780133,0.0025419268062027464
1743759068.6789896,0.0025159630198434615
1743759068.6799657,0.0025420470089173725
1743759068.6809416,0.002542648022490504
1743759068.6819174,0.0024461252426455707
1743759068.6828935,0.00238085516860348
1743759068.6838696,0.00239816435950967
1743759068.6848457,0.0024396342960557493
1743759068.6858215,0.0024641556498395186
1743759068.6867976,0.002507068018961114
1743759068.6877737,0.0025374793057615723
1743759068.6887496,0.0025734199174348416
1743759068.6897254,0.002681361955169275
1743759068.6907015,0.0027260773650102654
1743759068.6916778,0.0026736689814331905
1743759068.6926537,0.0026948246592074228
1743759068.6936295,0.0027258369595810125
1743759068.6946056,0.002823561766572209
1743759068.6955817,0.0028531316343702834
1743759068.6965575,0.002802045480654098
1743759068.6975334,0.0027280006084442862
1743759068.6985095,0.002710811620252723
1743759068.6994858,0.002704921687236033
1743759068.7004616,0.0026724669542869273
1743759068.7014375,0.0026174141109880735
1743759068.7024136,0.002593613973492063
1743759068.7033896,0.0025942149870651944
1743759068.7043655,0.0025706552549984362
1743759068.7053413,0.0025600774161113203
1743759068.7063177,0.002564164308408615
1743759068.7072937,0.0025640441056939884
1743759068.7082696,0.0025806320803124206
1743759068.7092454,0.002663932561548459
1743759068.7102215,0.002723793513432365
1743759068.7111976,0.002730524865451439
1743759068.7121735,0.002696267091782938
1743759068.7131495,0.0026808811443107695
1743759068.7141256,0.0026782366845889906
1743759068.7151017,0.0026271505308728058
1743759068.7160776,0.0025992635010794996
1743759068.7170534,0.0025934937707774368
1743759068.7180295,0.002595537216926084
1743759068.7190056,0.002550220793511962
1743759068.7199817,0.0025193286958529984
1743759068.7209575,0.002523415588150293
1743759068.7219336,0.002562000659545341
1743759068.7229097,0.002609480731822737
1743759068.7238855,0.002649989046651806
1743759068.7248614,0.002654556749807606
1743759068.7258375,0.0026840064148910543
1743759068.7268138,0.0026765538465842223
1743759068.7277896,0.0026176545164173265
1743759068.7287655,0.0026015473526574
1743759068.7297416,0.002592171540916547
1743759068.7307177,0.00262114039514149
1743759068.7316935,0.002712013647398986
1743759068.7326694,0.002879816637017326
1743759068.7336457,0.0030127608393940336
1743759068.7346218,0.0029300613717311266
1743759068.7355976,0.0028597427836747308
1743759068.7365735,0.00280036264264933
1743759068.7375495,0.002778846356731219
1743759068.7385256,0.002755527030093713
1743759068.7395015,0.0027576906789569867
1743759068.7404773,0.0027710331802805084
1743759068.7414536,0.0027542048002328237
1743759068.7424297,0.0027204278374228282
1743759068.7434056,0.0026737891841478166
1743759068.7443814,0.0026879731044737224
1743759068.7453575,0.002706364119811549
1743759068.7463336,0.002651311276512695
1743759068.7473097,0.0026204191788537314
1743759068.7482855,0.00265443654709298
1743759068.7492616,0.0027126146609721177
1743759068.7502377,0.002714658107120765
1743759068.7512136,0.0027022772275142547
1743759068.7521894,0.002723432905288486
1743759068.7531655,0.0027468724346406182
1743759068.7541418,0.002746511826496739
1743759068.7551177,0.0026831649958886697
1743759068.7560935,0.0025700542414253047
1743759068.7570696,0.002532550994461893
1743759068.7580457,0.0025031013293784453
1743759068.7590215,0.0024868739629038926
1743759068.7599974,0.0024920426796328243
1743759068.7609735,0.0025601976188259464
1743759068.7619498,0.0026343626937503847
1743759068.7629256,0.0027229520944299806
1743759068.7639015,0.0027366552038973813
1743759068.7648776,0.002689295334334612
1743759068.7658536,0.0025782280260198943
1743759068.7668295,0.0025088710596805086
1743759068.7678053,0.002470285988285461
1743759068.7687817,0.0024835082868943557
1743759068.7697577,0.002547936941934062
1743759068.7707336,0.0026193373544220948
1743759068.7717094,0.0026370071534721636
1743759068.7726855,0.002673188170574685
1743759068.7736616,0.0027105712148234704
1743759068.7746375,0.002703599457375144
1743759068.7756135,0.002645902154354511
1743759068.7765896,0.0026080382992472208
1743759068.7775657,0.0025553895102408937
1743759068.7785416,0.002504303356524709
1743759068.7795174,0.0024736516642949974
1743759068.7804935,0.0024551404462425444
1743759068.7814696,0.0024713678127170975
1743759068.7824457,0.002481705246174961
1743759068.7834215,0.002521492344716272
1743759068.7843976,0.002565847146413383
1743759068.7853737,0.0026559991823831217
1743759068.7863495,0.002702517632943507
1743759068.7873254,0.0026273909363020583
1743759068.7883015,0.0025663279572718887
1743759068.7892778,0.0025403641709126038
1743759068.7902536,0.0025773866070175097
1743759068.7912295,0.0025488985636510724
1743759068.7922056,0.0025212519392870197
1743759068.7931817,0.002511996330260793
1743759068.7941575,0.0025390419410517145
1743759068.7951334,0.0026009463390842683
1743759068.7961097,0.0026132070159761525
1743759068.7970858,0.0025949362033529525
1743759068.7980616,0.0025742613364372257
1743759068.7990375,0.002569092619708294
1743759068.8000135,0.0025484177527925673
1743759068.8009896,0.002543489441492888
1743759068.8019655,0.002545292482212283
1743759068.8029413,0.002558634983535804
1743759068.8039176,0.0026130868132615264
1743759068.8048937,0.0026850882393226905
1743759068.8058696,0.0027189854048473125
1743759068.8068454,0.0027052822953799126
1743759068.8078215,0.0026748710085794537
1743759068.8087976,0.0026069564748155845
1743759068.8097737,0.0025701744441399307
1743759068.8107495,0.0025398833600540987
1743759068.8117256,0.002504543761953961
1743759068.8127017,0.0024660788932735394
1743759068.8136775,0.0024868739629038926
1743759068.8146534,0.002500697275085919
1743759068.8156295,0.002497211396361756
1743759068.8166058,0.0024760557185875237
1743759068.8175817,0.0024460050399309446
1743759068.8185575,0.002441317134060518
1743759068.8195336,0.0025009376805151715
1743759068.8205097,0.002592171540916547
1743759068.8214855,0.0026288333688775744
1743759068.8224614,0.002663692156119206
1743759068.8234375,0.0027300440545929335
1743759068.8244138,0.0027691099368464867
1743759068.8253896,0.0027346117577487336
1743759068.8263655,0.0027299238518783075
1743759068.8273416,0.0027207884455667073
1743759068.8283176,0.002697348916214575
1743759068.8292935,0.002636526342613658
1743759068.8302693,0.002580752283027047
1743759068.8312457,0.0025439702523513933
1743759068.8322217,0.0025172852497043507
1743759068.8331976,0.0024668001095612974
1743759068.8341734,0.00246704051499055
1743759068.8351495,0.0024873547737623977
1743759068.8361256,0.002513198357407056
1743759068.8371015,0.0025087508569658825
1743759068.8380775,0.0025369984949030673
1743759068.8390536,0.0025159630198434615
1743759068.8400297,0.0025140397764094402
1743759068.8410056,0.002574020931007973
1743759068.8419814,0.002593734176206689
1743759068.8429575,0.002569092619708294
1743759068.8439336,0.0025265408587305774
1743759068.8449097,0.002479902205455566
1743759068.8458855,0.0024539384190962812
1743759068.8468616,0.0024315807141757862
1743759068.8478377,0.0024398747014850023
1743759068.8488135,0.0024625930145493764
1743759068.8497894,0.0025309883591717514
1743759068.8507655,0.002590248297482526
1743759068.8517418,0.002587964445904626
1743759068.8527176,0.0025898876893386473
1743759068.8536935,0.0026139282322639105
1743759068.8546696,0.002631357625884727
1743759068.8556457,0.002642897086488853
1743759068.8566215,0.0026141686376931635
1743759068.8575974,0.0025861614051852313
1743759068.8585737,0.002593613973492063
1743759068.8595498,0.002612245394259142
1743759068.8605256,0.002616813097414942
1743759068.8615015,0.002612485799688395
1743759068.8624775,0.0026247464765802794
1743759068.8634536,0.002622462625002379
1743759068.8644295,0.0026331606666041216
1743759068.8654053,0.0026516718846565745
1743759068.8663816,0.0026777558737304855
1743759068.8673577,0.0026539557362344744
1743759068.8683336,0.0026257080982972896
1743759068.8693094,0.002601907960801279
1743759068.8702855,0.0025949362033529525
1743759068.8712616,0.002578588634163773
1743759068.8722377,0.0025110347085437823
1743759068.8732135,0.0024462454453601967
1743759068.8741896,0.002416074563988991
1743759068.8751657,0.0023642671939850483
1743759068.8761415,0.0023681136808530903
1743759068.8771174,0.002398885575797428
1743759068.8780935,0.0024547798380986654
1743759068.8790698,0.002504543761953961
1743759068.8800457,0.0025516632260874778
1743759068.8810215,0.0025987826902209945
1743759068.8819976,0.0026320788421724845
1743759068.8829737,0.0026068362721009576
1743759068.8839495,0.0025541874830946306
1743759068.8849254,0.002537359103046946
1743759068.8859015,0.0025386813329078355
1743759068.8868778,0.002551062212514346
1743759068.8878536,0.002554788496667762
1743759068.8888295,0.002579550255880784
1743759068.8898056,0.0025594764025381887
1743759068.8907816,0.002524858020725809
1743759068.8917575,0.002473771867009624
1743759068.8927333,0.0024600687575422235
1743759068.8937097,0.0024604293656861026
1743759068.8946857,0.0024517747702330075
1743759068.8956616,0.0024725698398633607
1743759068.8966374,0.002483388084179729
1743759068.8976135,0.0024999760587981613
1743759068.8985896,0.0025363974813299357
1743759068.8995655,0.0025815937020294308
1743759068.9005415,0.0025628420785477253
1743759068.9015176,0.0025193286958529984
1743759068.9024937,0.002518727682279867
1743759068.9034696,0.0025031013293784453
1743759068.9044454,0.0025061063972441036
1743759068.9054215,0.002551062212514346
1743759068.9063976,0.002586041202470605
1743759068.9073737,0.0025848391753243417
1743759068.9083495,0.0025779876205906413
1743759068.9093256,0.0025635632948354833
1743759068.9103017,0.002542527819775878
1743759068.9112775,0.0025265408587305774
1743759068.9122534,0.00250851045153663
1743759068.9132295,0.002503702342951577
1743759068.9142058,0.0024717284208609766
1743759068.9151816,0.002455260648957171
1743759068.9161575,0.002472690042577987
1743759068.9171336,0.002455260648957171
1743759068.9181097,0.0024131896988379598
1743759068.9190855,0.002407179563106644
1743759068.9200613,0.0023832592228960063
1743759068.9210377,0.0023605409098316323
1743759068.9220138,0.002369195505284727
1743759068.9229896,0.002383379425610633
1743759068.9239655,0.00242917665988326
1743759068.9249415,0.0024462454453601967
1743759068.9259176,0.0024604293656861026
1743759068.9268935,0.002462112203690871
1743759068.9278696,0.0024164351721328702
1743759068.9288456,0.0023788117224548327
1743759068.9298217,0.0023737632084405275
1743759068.9307976,0.002358497463682985
1743759068.9317734,0.002380133952315722
1743759068.9327495,0.0023802541550303484
1743759068.9337256,0.0023538095578125584
1743759068.9347017,0.0023666712482775746
1743759068.9356775,0.0024243685512982073
1743759068.9366536,0.00246932436656845
1743759068.9376297,0.0024777385565922924
1743759068.9386055,0.0024918022742035713
1743759068.9395814,0.0025230549800064144
1743759068.9405575,0.002558514780821178
1743759068.9415338,0.0025594764025381887
1743759068.9425097,0.002507789235248872
1743759068.9434855,0.0024509333512306233
1743759068.9444616,0.0024033330762386015
1743759068.9454377,0.002320393203146442
1743759068.9464135,0.002286976848480326
1743759068.9473894,0.0023152244864175103
1743759068.9483654,0.0023415488809206742
1743759068.9493418,0.0023114982022640943
1743759068.9503176,0.002280726307319757
1743759068.9512935,0.0023226770547243422
1743759068.9522696,0.002370637937860243
1743759068.9532456,0.0024306190924587756
1743759068.9542215,0.002385783479903159
1743759068.9551973,0.0023345771234723474
1743759068.9561737,0.002316186108134521
1743759068.9571497,0.0023020021878086155
1743759068.9581256,0.0022774808340248467
1743759068.9591014,0.00227279292815442
1743759068.9600775,0.002314022459271247
1743759068.9610536,0.002433503957609807
1743759068.9620295,0.002535796467756804
1743759068.9630055,0.002568371403420536
1743759068.9639816,0.0025870028241876154
1743759068.9649577,0.0025293055211669828
1743759068.9659336,0.0024818254488895874
1743759068.9669094,0.0024589869331105864
1743759068.9678855,0.002444442404640802
1743759068.9688616,0.002442519161206781
1743759068.9698377,0.0023979239540804173
1743759068.9708135,0.002350083273659143
1743759068.9717896,0.0023301296230311738
1743759068.9727657,0.0023023627959524945
1743759068.9737415,0.0023015213769501104
1743759068.9747174,0.002297915295511321
1743759068.9756935,0.0023095749588300735
1743759068.9766698,0.002349362057371385
1743759068.9776456,0.002395159291644012
1743759068.9786215,0.0023749652355867907
1743759068.9795976,0.002314743675559005
1743759068.9805737,0.0022717111037227834
1743759068.9815495,0.002228558329171935
1743759068.9825253,0.0022230290042991245
1743759068.9835017,0.002299598133516089
1743759068.9844778,0.0024079007793944016
1743759068.9854536,0.002438432268909486
1743759068.9864295,0.0024278544300223703
1743759068.9874055,0.0024309797006026547
1743759068.9883816,0.0024646364606980237
1743759068.9893575,0.002489278017196419
1743759068.9903336,0.002443240377494539
1743759068.9913096,0.002422805916008065
1743759068.9922857,0.0024050159142433697
1743759068.9932616,0.0023980441567950437
1743759068.9942374,0.002380494560459601
1743759068.9952135,0.0023504438818030215
1743759068.9961896,0.002339986245630532
1743759068.9971657,0.002358257058253732
1743759068.9981415,0.0024059775359603804
1743759068.9991176,0.002394798683500133
1743759069.0000937,0.0023450347596448372
1743759069.0010695,0.0023395054347720265
1743759069.0020454,0.0023671520591360797
1743759069.0030215,0.0023628247614095326
1743759069.0039978,0.002373643005725901
1743759069.0049736,0.0023862642907616642
1743759069.0059495,0.002362704558694906
1743759069.0069256,0.0023587378691122375
1743759069.0079017,0.00234984286822989
1743759069.0088775,0.0022986365117990785
1743759069.0098534,0.0022744757661591884
1743759069.0108297,0.0022797646856027465
1743759069.0118058,0.0023041658366718893
1743759069.0127816,0.002311017391405589
1743759069.0137575,0.002323758879155979
1743759069.0147336,0.0023598196935438747
1743759069.0157096,0.0023343367180430953
1743759069.0166855,0.0023397458402012795
1743759069.0176613,0.0023700369242871115
1743759069.0186377,0.002390952196632091
1743759069.0196137,0.002374845032872164
1743759069.0205896,0.0023520065170931637
1743759069.0215654,0.0023526075306662952
1743759069.0225415,0.002365228815702059
1743759069.0235176,0.002367993478138464
1743759069.0244935,0.002372200573150385
1743759069.0254695,0.0023636661804119167
1743759069.0264456,0.002366551045562948
1743759069.0274217,0.002350924692661527
1743759069.0283976,0.0023152244864175103
1743759069.0293734,0.002282529348039152
1743759069.0303495,0.002273874752586057
1743759069.0313256,0.0022476705607975198
1743759069.0323017,0.0022385351544859195
1743759069.0332775,0.002244785695646488
1743759069.0342536,0.0022827697534684045
1743759069.0352297,0.002333976109899216
1743759069.0362055,0.0024051361169579962
1743759069.0371814,0.0024604293656861026
1743759069.0381575,0.0024649970688419027
1743759069.0391338,0.002454539432669413
1743759069.0401096,0.002452375783806139
1743759069.0410855,0.0023999674002290645
1743759069.0420616,0.002317388135280784
1743759069.0430377,0.0022956314439334206
1743759069.0440135,0.0022890202946289732
1743759069.0449893,0.0022422614386393355
1743759069.0459657,0.0022006712993786295
1743759069.0469418,0.002193819744644929
1743759069.0479176,0.0022221875852967404
1743759069.0488935,0.0023417892863499268
1743759069.0498695,0.002408862401111412
1743759069.0508456,0.002483628489608982
1743759069.0518215,0.0025337530216081564
1743759069.0527976,0.0025282236967353456
1743759069.0537736,0.002472449637148734
1743759069.0547497,0.002412588685264828
1743759069.0557256,0.002368714694426222
1743759069.0567014,0.0023658298292751905
1743759069.0576775,0.0023696763161432325
1743759069.0586536,0.002386504696190917
1743759069.0596297,0.002443480782923792
1743759069.0606055,0.00246247281183475
1743759069.0615816,0.002411146252689312
1743759069.0625577,0.002414872536842728
1743759069.0635335,0.0024276140245931177
1743759069.0645094,0.0024396342960557493
1743759069.0654855,0.002396481521504901
1743759069.0664618,0.0023379427994818847
1743759069.0674376,0.002288299078341215
1743759069.0684135,0.002229880559032825
1743759069.0693896,0.0022004308939493765
1743759069.0703657,0.002183121703043187
1743759069.0713415,0.0021983874478007292
1743759069.0723174,0.0021950217717911923
1743759069.0732937,0.0022082440704000875
1743759069.0742698,0.002206561232395319
1743759069.0752456,0.002147181091369918
1743759069.0762215,0.0021524700108134756
1743759069.0771976,0.0021703802152927974
1743759069.0781736,0.0021703802152927974
1743759069.0791495,0.0021799964324629027
1743759069.0801253,0.0021801166351775292
1743759069.0811017,0.002245146303790367
1743759069.0820777,0.0023945582780708803
1743759069.0830536,0.0024762961240167767
1743759069.0840294,0.0024899992334841766
1743759069.0850055,0.002512717546548551
1743759069.0859816,0.0024988942343665242
1743759069.0869575,0.0024306190924587756
1743759069.0879335,0.002445524229072439
1743759069.0889096,0.0024655980824150343
1743759069.0898857,0.0024452838236431866
1743759069.0908616,0.002344674151500958
1743759069.0918374,0.002238775559915172
1743759069.0928135,0.002190814676779271
1743759069.0937896,0.0021738660940169604
1743759069.0947657,0.0021950217717911923
1743759069.0957415,0.0022464685336512566
1743759069.0967176,0.0023141426619858736
1743759069.0976937,0.002391793615634475
1743759069.0986695,0.0024916820714889452
1743759069.0996454,0.0025008174778005455
1743759069.1006215,0.0024475676752210864
1743759069.1015978,0.002396361318790275
1743759069.1025736,0.002353569152383306
1743759069.1035495,0.002340467056489037
1743759069.1045256,0.002309094147971568
1743759069.1055017,0.0022699080630033887
1743759069.1064775,0.0022404583979199408
1743759069.1074533,0.002236852316481151
1743759069.1084297,0.0022544019128165936
1743759069.1094058,0.0022932273896408943
1743759069.1103816,0.0023243598927291105
1743759069.1113575,0.0023292882040287896
1743759069.1123335,0.0023127002294103575
1743759069.1133096,0.0023285669877410316
1743759069.1142855,0.0023515257062346586
1743759069.1152616,0.0023709985460041217
1743759069.1162376,0.002393476453639243
1743759069.1172137,0.0024214836861471754
1743759069.1181896,0.002440115106914255
1743759069.1191654,0.0024244887540128333
1743759069.1201415,0.002380494560459601
1743759069.1211176,0.0023651086129874324
1743759069.1220937,0.00234755901665199
1743759069.1230695,0.002339986245630532
1743759069.1240456,0.002327845771453274
1743759069.1250217,0.0022933475923555204
1743759069.1259975,0.0022725525227251676
1743759069.1269734,0.0022498342096607935
1743759069.1279495,0.0022346886676178775
1743759069.1289258,0.0022251926531623983
1743759069.1299016,0.002246708939080509
1743759069.1308775,0.0022777212394540993
1743759069.1318536,0.002329408406743416
1743759069.1328297,0.0023485206383690002
1743759069.1338055,0.0023670318564214536
1743759069.1347814,0.0023553721931027006
1743759069.1357577,0.0023621035451217745
1743759069.1367338,0.002362343950551027
1743759069.1377096,0.00234984286822989
1743759069.1386855,0.0023385438130550163
1743759069.1396616,0.002312099215837226
1743759069.1406376,0.0022614938729795466
1743759069.1416135,0.002227356302025672
1743759069.1425893,0.0022098067056902297
1743759069.1435657,0.0022361311001933932
1743759069.1445417,0.0023725611812942644
1743759069.1455176,0.0024951679502131087
1743759069.1464934,0.002507428627104993
1743759069.1474695,0.002511154911258409
1743759069.1484456,0.00254180660348812
1743759069.1494215,0.002537359103046946
1743759069.1503975,0.0024600687575422235
1743759069.1513736,0.002410665441830807
1743759069.1523497,0.0024036936843824805
1743759069.1533256,0.0024107856445454334
1743759069.1543014,0.0024241281458689547
1743759069.1552775,0.0024040542925263596
1743759069.1562538,0.0023675126672799587
1743759069.1572297,0.002355492395817327
1743759069.1582055,0.0023315720556066895
1743759069.1591816,0.002309094147971568
1743759069.1601577,0.002309815364259326
1743759069.1611335,0.002320994216719574
1743759069.1621094,0.0023655894238459375
1743759069.1630855,0.0024146321314134755
1743759069.1640618,0.0024740122724388764
1743759069.1650376,0.0024861527466161345
1743759069.1660135,0.0024842295031821137
1743759069.1669896,0.002474132475153503
1743759069.1679657,0.002432542335892797
1743759069.1689415,0.0024142715232695964
1743759069.1699173,0.0024063381441042594
1743759069.1708937,0.0023830188174667538
1743759069.1718698,0.002376648073591559
1743759069.1728456,0.0023973229405072857
1743759069.1738214,0.0024327827413220494
1743759069.1747975,0.002459467743969092
1743759069.1757736,0.0024853113276137504
1743759069.1767495,0.002513558965550935
1743759069.1777256,0.00249348511220834
1743759069.1787016,0.0024431201747799128
1743759069.1796777,0.002403934089811733
1743759069.1806536,0.0023827784120375012
1743759069.1816294,0.0023651086129874324
1743759069.1826055,0.0023504438818030215
1743759069.1835816,0.0023360195560478635
1743759069.1845577,0.0023235184737267264
1743759069.1855335,0.002331331650177437
1743759069.1865096,0.0023527277333809217
1743759069.1874857,0.002380374357744975
1743759069.1884615,0.0024010492246607017
1743759069.1894374,0.0023675126672799587
1743759069.1904135,0.002338784218484269
1743759069.1913898,0.0023550115849588216
1743759069.1923656,0.0024121078744063227
1743759069.1933415,0.002443240377494539
1743759069.1943176,0.002434225173897565
1743759069.1952937,0.002417156388420628
1743759069.1962695,0.0023768884790208115
1743759069.1972454,0.002374123816584406
1743759069.1982217,0.0023325336773237
1743759069.1991978,0.0022804859018905046
1743759069.2001736,0.0022481513716560253
1743759069.2011495,0.0022483917770852774
1743759069.2021255,0.002234568464903251
1743759069.2031016,0.0022468291417951356
1743759069.2040775,0.0022963526602211783
1743759069.2050533,0.002400087602943691
1743759069.2060297,0.002474973894155887
1743759069.2070057,0.0025681309979912834
1743759069.2079816,0.0025624814704038467
1743759069.2089574,0.002485070922184498
1743759069.2099335,0.002400568413802196
1743759069.2109096,0.002342270097208432
1743759069.2118855,0.0023117386076933473
1743759069.2128615,0.002290462727204489
1743759069.2138376,0.002303324417669505
1743759069.2148137,0.0023407074619182897
1743759069.2157896,0.0024219644970056805
1743759069.2167654,0.0024651172715565287
1743759069.2177415,0.0024338645657536865
1743759069.2187178,0.0024290564571686334
1743759069.2196937,0.0024422787557775287
1743759069.2206695,0.0024436009856384183
1743759069.2216456,0.002439393890626497
1743759069.2226217,0.0024242483485835808
1743759069.2235975,0.002404655306099491
1743759069.2245734,0.0023902309803443328
1743759069.2255495,0.002396000710646396
1743759069.2265258,0.002423166524151944
1743759069.2275016,0.0024811042326018293
1743759069.2284775,0.0024567030815326866
1743759069.2294536,0.0024116270635478176
1743759069.2304296,0.0023935966563538697
1743759069.2314055,0.0023953996970732644
1743759069.2323813,0.0024205220644301652
1743759069.2333577,0.002448048486079592
1743759069.2343338,0.0024460050399309446
1743759069.2353096,0.0024616313928323657
1743759069.2362854,0.002515842817128835
1743759069.2372615,0.0025633228894062308
1743759069.2382376,0.002549379374509578
1743759069.2392135,0.0025071882216757403
1743759069.2401896,0.0024830274760358506
1743759069.2411656,0.002430018078885644
1743759069.2421417,0.002408862401111412
1743759069.2431176,0.0024029724680947225
1743759069.2440934,0.0024139109151257174
1743759069.2450695,0.0024200412535716597
1743759069.2460456,0.002444682810070055
1743759069.2470217,0.002470766799143966
1743759069.2479975,0.0024274938218784912
1743759069.2489736,0.002390952196632091
1743759069.2499497,0.0023640267885557957
1743759069.2509255,0.0023515257062346586
1743759069.2519014,0.002323758879155979
1743759069.2528775,0.0023227972574389687
1743759069.2538538,0.0023322932718944475
1743759069.2548296,0.002382057195749743
1743759069.2558055,0.0025095922759682666
1743759069.2567816,0.0025379601166200774
1743759069.2577577,0.002515722614414209
1743759069.2587335,0.002485551733043003
1743759069.2597094,0.0024731708534364923
1743759069.2606857,0.0024996154506542823
1743759069.2616618,0.0025009376805151715
1743759069.2626376,0.0024392736879118707
1743759069.2636135,0.0024036936843824805
1743759069.2645895,0.0023903511830589592
1743759069.2655656,0.002369195505284727
1743759069.2665415,0.0023455155705033423
1743759069.2675173,0.0023302498257458002
1743759069.2684937,0.002328326582311779
1743759069.2694697,0.002348280232939748
1743759069.2704456,0.0023571752338220953
1743759069.2714214,0.002347318611222737
1743759069.2723975,0.0023414286782060477
1743759069.2733736,0.0023427509080669374
1743759069.2743495,0.0023451549623594637
1743759069.2753255,0.002395519899787891
1743759069.2763016,0.0024189594291400226
1743759069.2772777,0.002419440239998528
1743759069.2782536,0.0024570636896765656
1743759069.2792294,0.0025356762650421776
1743759069.2802055,0.0025811128911709257
1743759069.2811818,0.0025705350522838098
1743759069.2821577,0.002535556062327551
1743759069.2831335,0.0024653576769857817
1743759069.2841096,0.0023902309803443328
1743759069.2850857,0.0023784511143109537
1743759069.2860615,0.002372080370435759
1743759069.2870374,0.00239131280477597
1743759069.2880135,0.002414391725984223
1743759069.2889898,0.0024324221331781704
1743759069.2899656,0.0024210028752886703
1743759069.2909415,0.0023908319939174643
1743759069.2919176,0.0023516459089492846
1743759069.2928936,0.002346837800364232
1743759069.2938695,0.002403212873523975
1743759069.2948453,0.002440475715058134
1743759069.2958217,0.002441437336775144
1743759069.2967978,0.002426171592017602
1743759069.2977736,0.0024267726055907336
1743759069.2987494,0.0024014098328045803
1743759069.2997255,0.0023562136121050847
1743759069.3007016,0.0023639065858411692
1743759069.3016775,0.00238085516860348
1743759069.3026536,0.002396481521504901
1743759069.3036296,0.0023984047649389223
1743759069.3046057,0.002407419968535896
1743759069.3055816,0.0024128290906940807
1743759069.3065574,0.002407179563106644
1743759069.3075335,0.002449370715940481
1743759069.3085096,0.0025125973438339245
1743759069.3094857,0.0025104336949706508
1743759069.3104615,0.002497331599076382
1743759069.3114376,0.0024902396389134295
1743759069.3124137,0.002508630654251256
1743759069.3133895,0.002588084648619252
1743759069.3143654,0.0026350839100381424
1743759069.3153415,0.002603109987947542
1743759069.3163178,0.0025684916061351625
1743759069.3172936,0.0025526248478044884
1743759069.3182695,0.0025339934270374093
1743759069.3192456,0.0024949275447838557
1743759069.3202217,0.0024706465964293395
1743759069.3211975,0.0024732910561511188
1743759069.3221734,0.0024732910561511188
1743759069.3231497,0.002494326531210724
1743759069.3241258,0.002508630654251256
1743759069.3251016,0.002494807342069229
1743759069.3260775,0.0024567030815326866
1743759069.3270535,0.002399005778512054
1743759069.3280296,0.0023474388139373636
1743759069.3290055,0.0023189507705709263
1743759069.3299813,0.0023213548248634526
1743759069.3309577,0.00233842361034039
1743759069.3319337,0.002355612598531953
1743759069.3329096,0.0023789319251694588
1743759069.3338854,0.0024206422671447913
1743759069.3348615,0.0024668001095612974
1743759069.3358376,0.0024780991647361714
1743759069.3368134,0.0024672809204198025
1743759069.3377895,0.002471247610002471
1743759069.3387656,0.0024932447067790874
1743759069.3397417,0.002538080319334704
1743759069.3407176,0.0025681309979912834
1743759069.3416934,0.0025765451880151256
1743759069.3426695,0.0025831563373195734
1743759069.3436458,0.002559596605252815
1743759069.3446217,0.0025515430233728517
1743759069.3455975,0.002558875388965057
1743759069.3465736,0.0025901280947678994
1743759069.3475497,0.002569092619708294
1743759069.3485255,0.002528704507593851
1743759069.3495014,0.0025145205872679458
1743759069.3504775,0.0024928840986352084
1743759069.3514538,0.002495047747498482
1743759069.3524296,0.002501057883229798
1743759069.3534055,0.0024949275447838557
1743759069.3543816,0.0024653576769857817
1743759069.3553576,0.002463314230837134
1743759069.3563335,0.0024740122724388764
1743759069.3573093,0.002473771867009624
1743759069.3582857,0.002501057883229798
1743759069.3592618,0.002535435859612925
1743759069.3602376,0.0025439702523513933
1743759069.3612134,0.002524136804438051
1743759069.3621895,0.002515842817128835
1743759069.3631656,0.0025087508569658825
1743759069.3641415,0.002504423559239335
1743759069.3651175,0.0024957689637862403
1743759069.3660936,0.002494807342069229
1743759069.3670697,0.002500577072371293
1743759069.3680456,0.002519689303996877
1743759069.3690214,0.002553466266806873
1743759069.3699975,0.002583877553607331
1743759069.3709736,0.0026127262051176474
1743759069.3719497,0.002624986882009532
1743759069.3729255,0.0025886856621923837
1743759069.3739016,0.002518727682279867
1743759069.3748777,0.0024861527466161345
1743759069.3758535,0.0024615111901177393
1743759069.3768294,0.002456102067959555
1743759069.3778055,0.0024616313928323657
1743759069.3787818,0.0024849507194698714
1743759069.3797576,0.0025160832225580875
1743759069.3807335,0.0025404843736272303
1743759069.3817096,0.002582675526461068
1743759069.3826857,0.0026151302594101737
1743759069.3836615,0.0026349637073235163
1743759069.3846374,0.002648306208647037
1743759069.3856137,0.0026320788421724845
1743759069.3865898,0.002588445256763131
1743759069.3875656,0.0025253388315843142
1743759069.3885415,0.0025046639646685875
1743759069.3895175,0.0025023801130906877
1743759069.3904936,0.0025064670053879822
1743759069.3914695,0.002501418491373677
1743759069.3924453,0.002527622683162214
1743759069.3934216,0.0026190969489928422
1743759069.3943977,0.0026778760764451116
1743759069.3953736,0.0027204278374228282
1743759069.3963494,0.0027770433160118242
1743759069.3973255,0.002770071558563498
1743759069.3983016,0.0027258369595810125
1743759069.3992777,0.0026740295895770695
1743759069.4002535,0.002657441614958638
1743759069.4012296,0.002656479993241627
1743759069.4022057,0.002639651613193943
1743759069.4031816,0.002639771815908569
1743759069.4041574,0.0026457819516398848
1743759069.4051335,0.0026611678991120533
1743759069.4061098,0.0026997529705071015
1743759069.4070857,0.0027218702699983444
1743759069.4080615,0.002700233781365607
1743759069.4090376,0.0026350839100381424
1743759069.4100137,0.0025545480912385096
1743759069.4109895,0.0025020195049468086
1743759069.4119654,0.0024616313928323657
1743759069.4129415,0.002453818216381655
1743759069.4139178,0.0024743728805827554
1743759069.4148936,0.002508630654251256
1743759069.4158695,0.002593734176206689
1743759069.4168456,0.0027084075659601966
1743759069.4178216,0.002790385817335345
1743759069.4187975,0.0028156283874068723
1743759069.4197733,0.002819474874274914
1743759069.4207497,0.00280493034580513
1743759069.4217257,0.00280589196752214
1743759069.4227016,0.0028114212923949513
1743759069.4236774,0.0027808898028798663
1743759069.4246535,0.0027457906102089816
1743759069.4256296,0.002741463312482434
1743759069.4266055,0.0027332895278878444
1743759069.4275815,0.002730645068166065
1743759069.4285576,0.0027617775712542817
1743759069.4295337,0.002764301828261434
1743759069.4305096,0.00275889270610325
1743759069.4314854,0.002773557437287661
1743759069.4324615,0.0027822120327407555
1743759069.4334376,0.00280036264264933
1743759069.4344137,0.002811060684251072
1743759069.4353895,0.0027951939259203977
1743759069.4363656,0.002766104868980829
1743759069.4373417,0.0027243945270054967
1743759069.4383175,0.002687852901759096
1743759069.4392934,0.00265443654709298
1743759069.4402695,0.0025945755952090734
1743759069.4412458,0.002521492344716272
1743759069.4422216,0.002477618353877666
1743759069.4431975,0.002412348279835575
1743759069.4441736,0.002378330911596327
1743759069.4451497,0.002425810983873723
1743759069.4461255,0.0025300267374547404
1743759069.4471014,0.002580031066739289
1743759069.4480777,0.00267859729273287
1743759069.4490538,0.002822359739425946
1743759069.4500296,0.002991965769763681
1743759069.4510055,0.003023458880995776
1743759069.4519815,0.0029620352938217274
1743759069.4529576,0.0028822206913098523
1743759069.4539335,0.0028448376470610673
1743759069.4549093,0.00282909109144502
1743759069.4558856,0.002819354671560288
1743759069.4568617,0.0028317355511667986
1743759069.4578376,0.0028414719710515308
1743759069.4588134,0.0028596225809601043
1743759069.4597895,0.002850727580077757
1743759069.4607656,0.002835341632605588
1743759069.4617417,0.002834139605459325
1743759069.4627175,0.0028516892017947677
1743759069.4636936,0.0028527710262264048
1743759069.4646697,0.0028418325791954094
1743759069.4656456,0.0028298123077327778
1743759069.4666214,0.0028191142661310353
1743759069.4675975,0.0028403901466198937
1743759069.4685738,0.0028689983927009575
1743759069.4695497,0.002841231565622278
1743759069.4705255,0.0028093778462463036
1743759069.4715016,0.0027635806119736765
1743759069.4724777,0.0027105712148234704
1743759069.4734535,0.0026895357397638646
1743759069.4744294,0.002705883308953044
1743759069.4754055,0.002738939055475281
1743759069.4763818,0.002763099801115171
1743759069.4773576,0.002762979598400545
1743759069.4783335,0.0027992808182176927
1743759069.4793096,0.002810219265248688
1743759069.4802856,0.0028158687928361245
1743759069.4812615,0.002828129469728009
1743759069.4822373,0.00282776886158413
1743759069.4832137,0.0028403901466198937
1743759069.4841897,0.002862627648825762
1743759069.4851656,0.0029013329229354372
1743759069.4861414,0.0029127521808249373
1743759069.4871175,0.0029298209663018745
1743759069.4880936,0.0029239310332851848
1743759069.4890695,0.002937874548181837
1743759069.4900455,0.002943764481198527
1743759069.4910216,0.002948091778925075
1743759069.4919977,0.002949414008785964
1743759069.4929736,0.0029387159671842218
1743759069.4939494,0.0029473705626373164
1743759069.4949255,0.0029454473192032956
1743759069.4959016,0.002932225020594401
1743759069.4968777,0.002922007789851163
1743759069.4978535,0.0029228492088535477
1743759069.4988296,0.0029214067762780315
1743759069.4998057,0.0029174400866953634
1743759069.5007815,0.002908905693956895
1743759069.5017574,0.002908905693956895
1743759069.5027335,0.0028941207600578574
1743759069.5037098,0.002885586367319389
1743759069.5046856,0.0028865479890364
1743759069.5056615,0.002859141770101599
1743759069.5066376,0.0028282496724426356
1743759069.5076137,0.0028040889268027454
1743759069.5085895,0.0028032475078003613
1743759069.5095654,0.0028180324416993987
1743759069.5105417,0.0028342598081739514
1743759069.5115178,0.0028473619040682197
1743759069.5124936,0.002868878189986331
1743759069.5134695,0.002889673259616684
1743759069.5144455,0.002904337990801095
1743759069.5154216,0.002929099750014116
1743759069.5163975,0.0029506160359322273
1743759069.5173733,0.0029706898892748225
1743759069.5183496,0.00297273333542347
1743759069.5193257,0.002978503065725533
1743759069.5203016,0.002988960701898023
1743759069.5212774,0.0029829505661667067
1743759069.5222535,0.0029805465118741803
1743759069.5232296,0.002986917255749375
1743759069.5242057,0.0029946102294854597
1743759069.5251815,0.002979344484727917
1743759069.5261576,0.0029608332666754642
1743759069.5271337,0.0029575877933805538
1743759069.5281096,0.002974416173428238
1743759069.5290854,0.0029836717824544647
1743759069.5300615,0.0029661221861190224
1743759069.5310378,0.0029435240757692744
1743759069.5320137,0.0029435240757692744
1743759069.5329895,0.002941120021476748
1743759069.5339656,0.0029347492776015532
1743759069.5349417,0.002919122924700132
1743759069.5359175,0.00293126339887739
1743759069.5368934,0.0029577079960951803
1743759069.5378695,0.0029798252955864223
1743759069.5388458,0.0029966536756341074
1743759069.5398216,0.003011919420391649
1743759069.5407975,0.003026223543432181
1743759069.5417736,0.003020213407700865
1743759069.5427496,0.003029469016727092
1743759069.5437255,0.003036801382319297
1743759069.5447013,0.0030527883433645975
1743759069.5456777,0.0030679338854075135
1743759069.5466537,0.003075626859143598
1743759069.5476296,0.0030876471306062296
1743759069.5486054,0.003104836118797793
1743759069.5495815,0.0031066391595171877
1743759069.5505576,0.003094378482625304
1743759069.5515335,0.0030821178057334193
1743759069.5525095,0.003065049020256482
1743759069.5534856,0.0030458165859162715
1743759069.5544617,0.0030455761804870185
1743759069.5554376,0.003044013545196876
1743759069.5564134,0.0030355993551730337
1743759069.5573895,0.003030791246587981
1743759069.5583656,0.003043172126194492
1743759069.5593417,0.0030477398293502923
1743759069.5603175,0.003045335775057766
1743759069.5612936,0.0030241800972835337
1743759069.5622697,0.002997374891921865
1743759069.5632455,0.0029842727960275963
1743759069.5642214,0.00297730103857927
1743759069.5651975,0.0029673242132652856
1743759069.5661738,0.0029489331979274586
1743759069.5671496,0.0029464089409203063
1743759069.5681255,0.0029620352938217274
1743759069.5691016,0.002991845567049054
1743759069.5700777,0.0030134820556817917
1743759069.5710535,0.0030216558402763813
1743759069.5720294,0.003025021516285918
1743759069.5730057,0.003059399492669045
1743759069.5739818,0.003094378482625304
1743759069.5749576,0.003108802808380462
1743759069.5759335,0.003101710848217509
1743759069.5769095,0.003100508821071246
1743759069.5778856,0.0031009896319297513
1743759069.5788615,0.0030996674020688612
1743759069.5798373,0.003110125038241351
1743759069.5808136,0.003120342268984588
1743759069.5817897,0.0031273140264329144
1743759069.5827656,0.003121784701560104
1743759069.5837414,0.003121424093416225
1743759069.5847175,0.0031178180119774356
1743759069.5856936,0.0031008694292151244
1743759069.5866697,0.0030834400355943085
1743759069.5876455,0.0030622843578200763
1743759069.5886216,0.003032834692736629
1743759069.5895977,0.0030156457045450655
1743759069.5905735,0.003020213407700865
1743759069.5915494,0.0030353589497437816
1743759069.5925255,0.003058678276381287
1743759069.5935018,0.0030878875360354826
1743759069.5944777,0.003116495782116546
1743759069.5954535,0.0031439020010513466
1743759069.5964296,0.003168543557549742
1743759069.5974057,0.003176597139429705
1743759069.5983815,0.0031701061928398836
1743759069.5993574,0.0031412575413295677
1743759069.6003335,0.0031221453097039827
1743759069.6013098,0.0031197412554114564
1743759069.6022856,0.0030970229423470824
1743759069.6032615,0.0030512257080744557
1743759069.6042376,0.0030327144900220023
1743759069.6052136,0.0030542307759401136
1743759069.6061895,0.0030931764554790408
1743759069.6071653,0.003131641324159462
1743759069.6081417,0.0031334443648788567
1743759069.6091177,0.003124789769425762
1743759069.6100936,0.003136088824600636
1743759069.6110694,0.0031741930851371786
1743759069.6120455,0.003213619575534611
1743759069.6130216,0.003217345859688027
1743759069.6139975,0.00317707795028821
1743759069.6149735,0.0031413777440441938
1743759069.6159496,0.0031371706490322727
1743759069.6169257,0.003123467539564873
1743759069.6179016,0.003109043213809714
1743759069.6188774,0.0030633661822517134
1743759069.6198535,0.00303475793617065
1743759069.6208296,0.003047619626635666
1743759069.6218057,0.0030875269278916036
1743759069.6227815,0.003155441461655473
1743759069.6237576,0.003189579032609347
1743759069.6247337,0.0031703465982691366
1743759069.6257095,0.0031919830869018735
1743759069.6266854,0.003243429848761938
1743759069.6276615,0.0032945160024781227
1743759069.6286378,0.0033219222214129237
1743759069.6296136,0.0033185565454033864
1743759069.6305895,0.0032945160024781227
1743759069.6315656,0.0032576137690878432
1743759069.6325417,0.0032238368062778478
1743759069.6335175,0.0032222741709877056
1743759069.6344934,0.003230688361011548
1743759069.6354697,0.0032471561329153534
1743759069.6364458,0.0032475167410592324
1743759069.6374216,0.0032428288351888063
1743759069.6383975,0.0032431894433326853
1743759069.6393735,0.0032443914704789484
1743759069.6403496,0.003244872281337454
1743759069.6413255,0.0032214327519853214
1743759069.6423013,0.003208691264234932
1743759069.6432776,0.0031964305873430476
1743759069.6442537,0.0031767173421443314
1743759069.6452296,0.0031630142326769307
1743759069.6462054,0.003155922272513978
1743759069.6471815,0.003156883894230989
1743759069.6481576,0.003159528353952768
1743759069.6491337,0.0031745536932810577
1743759069.6501095,0.0031949881547675314
1743759069.6510856,0.003179962815439242
1743759069.6520617,0.0031774385584320895
1743759069.6530375,0.003156162677943231
1743759069.6540134,0.003157244502374868
1743759069.6549895,0.0031662597059718416
1743759069.6559658,0.0031714284227007737
1743759069.6569417,0.003172870855276289
1743759069.6579175,0.0031779193692905946
1743759069.6588936,0.0032013588986427263
1743759069.6598697,0.003233332820733327
1743759069.6608455,0.0032889866776053124
1743759069.6618214,0.0033184363426887603
1743759069.6627975,0.0033185565454033864
1743759069.6637738,0.003319878775264276
1743759069.6647496,0.0033249272892785816
1743759069.6657255,0.0033162726938254865
1743759069.6667016,0.003297040259485276
1743759069.6676776,0.003292833164473355
1743759069.6686535,0.003274081540991649
1743759069.6696293,0.003270715864982112
1743759069.6706057,0.0033038918142189754
1743759069.6715817,0.0033302162087221394
1743759069.6725576,0.0033215616132690443
1743759069.6735334,0.0033066564766553812
1743759069.6745095,0.0032981220839169126
1743759069.6754856,0.003296799854056023
1743759069.6764615,0.003294155394334244
1743759069.6774375,0.00329559782690976
1743759069.6784136,0.0032922321509002233
1743759069.6793897,0.0032820149201569855
1743759069.6803656,0.0032773270142865594
1743759069.6813414,0.0032778078251450645
1743759069.6823175,0.003269874445979728
1743759069.6832936,0.0032687926215480907
1743759069.6842697,0.003262542080387522
1743759069.6852455,0.003256051133797701
1743759069.6862216,0.003255329917509943
1743759069.6871977,0.0032514834306419014
1743759069.6881735,0.003247997551917738
1743759069.6891494,0.0032464349166275957
1743759069.6901255,0.0032524450523589116
1743759069.6911018,0.003259416809807238
1743759069.6920776,0.0032702350541236064
1743759069.6930535,0.003270715864982112
1743759069.6940296,0.0032762451898549227
1743759069.6950057,0.0032829765418739966
1743759069.6959815,0.0032861018124542805
1743759069.6969573,0.0032757643789964176
1743759069.6979337,0.003266749175399444
1743759069.6989098,0.003266508769970191
1743759069.6998856,0.0032633834993899065
1743759069.7008615,0.003267951202545707
1743759069.7018375,0.003285621001595775
1743759069.7028136,0.003294155394334244
1743759069.7037895,0.0032903089074662016
1743759069.7047656,0.0032912705291832122
1743759069.7057416,0.0032876644477444227
1743759069.7067177,0.003300045327350934
1743759069.7076936,0.0032993241110631758
1743759069.7086694,0.0032875442450297967
1743759069.7096455,0.003286702826027412
1743759069.7106216,0.003282375528300865
1743759069.7115977,0.0032821351228716125
1743759069.7125735,0.0032717976894137486
1743759069.7135496,0.0032528056605027906
1743759069.7145257,0.0032455934976252116
1743759069.7155015,0.0032499207953517587
1743759069.7164774,0.003257493566373217
1743759069.7174535,0.0032687926215480907
1743759069.7184298,0.003270956270411365
1743759069.7194057,0.00327372093284777
1743759069.7203815,0.003272999716560012
1743759069.7213576,0.0032766057979988013
1743759069.7223337,0.0032845391771641388
1743759069.7233095,0.0033046130305067335
1743759069.7242854,0.0033222828295568023
1743759069.7252614,0.00332661012728335
1743759069.7262378,0.0033373081688850923
1743759069.7272136,0.003339952628606871
1743759069.7281895,0.0033395920204629926
1743759069.7291656,0.0033512516837817447
1743759069.7301416,0.00336808006382943
1743759069.7311175,0.003376734659282524
1743759069.7320933,0.003382624592299214
1743759069.7330697,0.003380701348865193
1743759069.7340457,0.003348967832203845
1743759069.7350216,0.003324807086563955
1743759069.7359974,0.0032891068803199384
1743759069.7369735,0.0032672299862579485
1743759069.7379496,0.003274201743706275
1743759069.7389255,0.0032675905944018276
1743759069.7399015,0.0032633834993899065
1743759069.7408776,0.003263503702104533
1743759069.7418537,0.003277928027859691
1743759069.7428296,0.0032915109346124648
1743759069.7438054,0.003304252422362855
1743759069.7447815,0.003310022152664918
1743759069.7457576,0.003300285732780186
1743759069.7467337,0.00329427559704887
1743759069.7477095,0.003304372625077481
1743759069.7486856,0.0033048534359359865
1743759069.7496617,0.003311825193384313
1743759069.7506375,0.0033290141815758762
1743759069.7516134,0.0033413950611823873
1743759069.7525895,0.0033601466846640924
1743759069.7535658,0.003370844726265835
1743759069.7545416,0.003369522496404945
1743759069.7555175,0.0033629113471004978
1743759069.7564936,0.003352694116357261
1743759069.7574697,0.0033364667498827077
1743759069.7584455,0.0033454819534796815
1743759069.7594213,0.0033532951299303925
1743759069.7603977,0.003345241548050429
1743759069.7613738,0.0033427172910432765
1743759069.7623496,0.003341875872040892
1743759069.7633255,0.0033437991154749136
1743759069.7643015,0.003329374789719755
1743759069.7652776,0.0033290141815758762
1743759069.7662535,0.003341755669326266
1743759069.7672296,0.003350530467493987
1743759069.7682056,0.0033560597923667974
1743759069.7691817,0.003348246615916087
1743759069.7701576,0.0033469243860551976
1743759069.7711334,0.0033413950611823873
1743759069.7721095,0.0033351445200218185
1743759069.7730856,0.0033339424928755554
1743759069.7740617,0.0033371879661704654
1743759069.7750375,0.003357983035800819
1743759069.7760136,0.0033585840493739506
1743759069.7769897,0.0033666376312539137
1743759069.7779655,0.0033668780366831667
1743759069.7789414,0.003372767969699856
1743759069.7799175,0.0033823841868699613
1743759069.7808938,0.0033889953361744087
1743759069.7818696,0.0033977701343421303
1743759069.7828455,0.0033975297289128774
1743759069.7838216,0.0033936832420448353
1743759069.7847977,0.003391399390466935
1743759069.7857735,0.0033907983768938035
1743759069.7867494,0.0033917599986108145
1743759069.7877257,0.0033920004040400666
1743759069.7887018,0.003388394322601277
1743759069.7896776,0.003395846890908109
1743759069.7906535,0.0033948852691910985
1743759069.7916296,0.0033877933090281456
1743759069.7926056,0.0033892357416036613
1743759069.7935815,0.0033966883099104932
1743759069.7945573,0.003412915676385046
1743759069.7955337,0.0034148389198190676
1743759069.7965097,0.003413035879099673
1743759069.7974856,0.0034177237849700986
1743759069.7984614,0.0034339511514446517
1743759069.7994375,0.0034428461523269994
1743759069.8004136,0.0034382784491711993
1743759069.8013895,0.003438999665458957
1743759069.8023655,0.0034406825034637256
1743759069.8033416,0.0034428461523269994
1743759069.8043177,0.0034466926391950414
1743759069.8052936,0.003450539126063084
1743759069.8062694,0.003447654260912052
1743759069.8072455,0.0034543856129311255
1743759069.8082216,0.0034376774355980677
1743759069.8091977,0.0034201278392626253
1743759069.8101735,0.003405823716222093
1743759069.8111496,0.003388274119886651
1743759069.8121257,0.003385749862879498
1743759069.8131015,0.0033935630393302093
1743759069.8140774,0.00341832479854323
1743759069.8150535,0.003437076422024936
1743759069.8160298,0.00346207858666721
1743759069.8170056,0.0034672473033961417
1743759069.8179815,0.003468449330542405
1743759069.8189576,0.0034946535223309423
1743759069.8199337,0.0035047505503595527
1743759069.8209095,0.00351040007794699
1743759069.8218853,0.0035172516326806903
1743759069.8228617,0.003517852646253822
1743759069.8238378,0.0034890039947435055
1743759069.8248136,0.003467607911540021
1743759069.8257895,0.0034656846681059995
1743759069.8267655,0.003475901898849237
1743759069.8277416,0.0034940525087578107
1743759069.8287175,0.0035015050770646427
1743759069.8296936,0.003506192982935069
1743759069.8306696,0.0034985000091989848
1743759069.8316457,0.003492610076182295
1743759069.8326216,0.00349669696847959
1743759069.8335974,0.003506914199222827
1743759069.8345735,0.003508476834512969
1743759069.8355496,0.003481311021007421
1743759069.8365257,0.0034530633830702363
1743759069.8375015,0.003435994597593299
1743759069.8384776,0.003450298720633831
1743759069.8394537,0.0034573906807967834
1743759069.8404295,0.0034576310862260364
1743759069.8414054,0.0034599149378039366
1743759069.8423815,0.003463521019242726
1743759069.8433578,0.003486359535021726
1743759069.8443336,0.0034950141304748213
1743759069.8453095,0.0034985000091989848
1743759069.8462856,0.0035007838607768846
1743759069.8472617,0.0035091980508007267
1743759069.8482375,0.00351040007794699
1743759069.8492134,0.0035045101449303006
1743759069.8501897,0.003518814267970832
1743759069.8511658,0.0035298729177164535
1743759069.8521416,0.0035268678498507956
1743759069.8531175,0.003513405145812648
1743759069.8540936,0.0035047505503595527
1743759069.8550696,0.003519896092402469
1743759069.8560455,0.0035370850805940325
1743759069.8570213,0.0035424942027522167
1743759069.8579977,0.003537325486023285
1743759069.8589737,0.0035338396072991224
1743759069.8599496,0.003534320418157627
1743759069.8609254,0.003538647715884175
1743759069.8619015,0.0035399699457450643
1743759069.8628776,0.003545619473332501
1743759069.8638535,0.0035578801502243857
1743759069.8648295,0.0035513892036345644
1743759069.8658056,0.0035495861629151696
1743759069.8667817,0.0035661741375336013
1743759069.8677576,0.0035729054895526752
1743759069.8687334,0.0035818004904350225
1743759069.8697095,0.0035843247474421757
1743759069.8706856,0.003598508667768081
1743759069.8716617,0.0035975470460510705
1743759069.8726375,0.0035949025863292916
1743759069.8736136,0.003593940964612281
1743759069.8745897,0.0035884116397394707
1743759069.8755655,0.003582401504008155
1743759069.8765414,0.0035872096125932076
1743759069.8775175,0.003590935896746623
1743759069.8784938,0.003594782383614665
1743759069.8794696,0.0036034369790677603
1743759069.8804455,0.0035917773157490072
1743759069.8814216,0.003583603531154418
1743759069.8823977,0.0035874500180224597
1743759069.8833735,0.003595142991758544
1743759069.8843493,0.0036080046822235604
1743759069.8853257,0.0036176208993936657
1743759069.8863018,0.003596946032477939
1743759069.8872776,0.0035967056270486864
1743759069.8882535,0.003578434814425486
1743759069.8892295,0.003562207447950933
1743759069.8902056,0.003579636841571749
1743759069.8911815,0.003595864208046302
1743759069.8921576,0.0036197845482569394
1743759069.8931336,0.0036218279944055867
1743759069.8941097,0.0036481523889087507
1743759069.8950856,0.0036714717155462563
1743759069.8960614,0.0036760394187020564
1743759069.8970375,0.0036768808377044405
1743759069.8980136,0.0037047678674977462
1743759069.8989897,0.003720274017684541
1743759069.8999655,0.003727365977847494
1743759069.9009416,0.003724601315411089
1743759069.9019177,0.003720514423113794
1743759069.9028935,0.0037018830023467144
1743759069.9038694,0.0036895021227402037
1743759069.9048455,0.003686857663018425
1743759069.9058218,0.0036991183399103095
1743759069.9067976,0.0037022436104905934
1743759069.9077735,0.003693709217752125
1743759069.9087496,0.00366906766125373
1743759069.9097257,0.0036510372540597817
1743759069.9107015,0.003639738198884908
1743759069.9116774,0.0036364927255899977
1743759069.9126537,0.0036320452251488236
1743759069.9136298,0.003630121981714803
1743759069.9146056,0.0036307229952879344
1743759069.9155815,0.0036292805627124187
1743759069.9165576,0.0036370937391631292
1743759069.9175336,0.0036483927943380032
1743759069.9185095,0.0036519988757767927
1743759069.9194853,0.003666302998817324
1743759069.9204617,0.0036818091490041192
1743759069.9214377,0.0036433442803236976
1743759069.9224136,0.0036257946839882552
1743759069.9233894,0.003624352251412739
1743759069.9243655,0.0036202653591154445
1743759069.9253416,0.0036220683998348393
1743759069.9263175,0.0036370937391631292
1743759069.9272935,0.0036485129970526293
1743759069.9282696,0.0036477917807648716
1743759069.9292457,0.003652239281206045
1743759069.9302216,0.003666302998817324
1743759069.9311974,0.003674476783411914
1743759069.9321735,0.0036801263109993514
1743759069.9331498,0.0036955122584715196
1743759069.9341257,0.003706691110931767
1743759069.9351015,0.00371282144937771
1743759069.9360776,0.0037250821262695935
1743759069.9370537,0.0037253225316988465
1743759069.9380295,0.003724360909981836
1743759069.9390054,0.0037237598964087043
1743759069.9399815,0.0037320538837179204
1743759069.9409578,0.003739025641166247
1743759069.9419336,0.003747439831190089
1743759069.9429095,0.003750685304485
1743759069.9438856,0.0037568156429309417
1743759069.9448617,0.003757657061933326
1743759069.9458375,0.0037553732103554264
1743759069.9468133,0.003754892399496921
1743759069.9477897,0.0037554934130700525
1743759069.9487658,0.0037595803053673475
1743759069.9497416,0.003766431860101047
1743759069.9507174,0.0037690763198228263
1743759069.9516935,0.0037695571306813314
1743759069.9526696,0.003769677333395958
1743759069.9536455,0.003773403617549374
1743759069.9546216,0.0037797743614245687
1743759069.9555976,0.0037856642944412585
1743759069.9565737,0.0037950401061821112
1743759069.9575496,0.0037910734165994427
1743759069.9585254,0.0037950401061821112
1743759069.9595015,0.003795641119755243
1743759069.9604776,0.003795641119755243
1743759069.9614537,0.0038000886201964164
1743759069.9624295,0.0038089836210787637
1743759069.9634056,0.003817037202958727
1743759069.9643817,0.0038336251775771594
1743759069.9653575,0.003838192880732959
1743759069.9663334,0.003845645449039791
1743759069.9673095,0.0038511747739126013
1743759069.9682858,0.0038506939630540958
1743759069.9692616,0.0038526172064881174
1743759069.9702375,0.0038552616662098963
1743759069.9712136,0.003863074842660607
1743759069.9721897,0.0038652384915238806
1743759069.9731655,0.0038713688299698225
1743759069.9741414,0.0038862739665834864
1743759069.9751177,0.0039016599140556554
1743759069.9760938,0.0039026215357726656
1743759069.9770696,0.0039027417384872917
1743759069.9780455,0.0038997366706216337
1743759069.9790215,0.0038837497095763336
1743759069.9799976,0.0038851921421518497
1743759069.9809735,0.0038809850471399287
1743759069.9819493,0.003875095114123239
1743759069.9829257,0.0038639162616629914
1743759069.9839017,0.0038621132209435967
1743759069.9848776,0.0038728112625453386
1743759069.9858534,0.003896010386468218
1743759069.9868295,0.003925099443407787
1743759069.9878056,0.0039002174814801393
1743759069.9887815,0.0038504535576248436
1743759069.9897575,0.003845645449039791
1743759069.9907336,0.003844443421893528
1743759069.9917097,0.0038378322725890804
1743759069.9926856,0.0038318221368577646
1743759069.9936614,0.003825691798411822
1743759069.9946375,0.0038410777458839905
1743759069.9956138,0.003849131327763954
1743759069.9965897,0.0038463666653275486
1743759069.9975655,0.0038378322725890804
1743759069.9985416,0.0038439626110350223
1743759069.9995177,0.0038640364643776175
1743759070.0004935,0.003870888019111318
1743759070.0014694,0.0038825476824300704
1743759070.0024455,0.003898294238046118
1743759070.0034218,0.003918969104961845
1743759070.0043976,0.0039355570795802765
1743759070.0053735,0.003945293499465008
1743759070.0063496,0.003953226878630345
1743759070.0073256,0.003951183432481698
1743759070.0083015,0.003947577351042908
1743759070.0092773,0.003953347081344972
1743759070.0102537,0.003962602690371198
1743759070.0112298,0.003967050190812372
1743759070.0122056,0.003961520865939562
1743759070.0131814,0.003949740999906182
1743759070.0141575,0.003938802552875187
1743759070.0151336,0.003936518701297287
1743759070.0161095,0.0039357974850095295
1743759070.0170856,0.003914762009949924
1743759070.0180616,0.003886634574727365
1743759070.0190377,0.003864637477950749
1743759070.0200136,0.0038684839648187915
1743759070.0209894,0.0038841103177202126
1743759070.0219655,0.0038945679538927025
1743759070.0229416,0.0039045447792066864
1743759070.0239177,0.003915002415379176
1743759070.0248935,0.003918127685959461
1743759070.0258696,0.0039283449167026975
1743759070.0268457,0.003926181267839424
1743759070.0278215,0.003922214578256755
1743759070.0287974,0.003926662078697929
1743759070.0297735,0.003937840931158177
1743759070.0307498,0.0039474571483282825
1743759070.0317256,0.003954549108491235
1743759070.0327015,0.003960679446937177
1743759070.0336776,0.003961160257795682
1743759070.0346537,0.003960679446937177
1743759070.0356295,0.003955390527493619
1743759070.0366054,0.003963323906658957
1743759070.0375817,0.0039656077582368564
1743759070.0385578,0.003967050190812372
1743759070.0395336,0.003972218907541304
1743759070.0405095,0.003985321003435572
1743759070.0414855,0.003988205868586604
1743759070.0424616,0.003985922017008704
1743759070.0434375,0.003989528098447493
1743759070.0444133,0.003993614990744789
1743759070.0453897,0.003978589651416498
1743759070.0463657,0.00396452593380522
1743759070.0473416,0.003974983569977709
1743759070.0483174,0.003979911881277388
1743759070.0492935,0.003974743164548457
1743759070.0502696,0.0039588764062177826
1743759070.0512455,0.003985561408864825
1743759070.0522215,0.0040031110052002675
1743759070.0531976,0.004009121140931583
1743759070.0541737,0.004009842357219341
1743759070.0551496,0.004010082762648594
1743759070.0561254,0.00400924134364621
1743759070.0571015,0.0039958988423226885
1743759070.0580778,0.00399974532919073
1743759070.0590537,0.004009722154504715
1743759070.0600295,0.0040135686413727565
1743759070.0610056,0.004015852492950657
1743759070.0619817,0.004020299993391831
1743759070.0629575,0.004028113169842542
1743759070.0639334,0.004041936482024568
1743759070.0649095,0.004040373846734426
1743759070.0658858,0.004026911142696279
1743759070.0668616,0.0040368879680102625
1743759070.0678375,0.004040494049449052
1743759070.0688136,0.004045903171607236
1743759070.0697896,0.0040485476313290155
1743759070.0707655,0.004059005267501505
1743759070.0717413,0.004058644659357627
1743759070.0727177,0.004057322429496736
1743759070.0736938,0.004056721415923605
1743759070.0746696,0.004046864793324247
1743759070.0756454,0.004047706212326631
1743759070.0766215,0.004031238440422825
1743759070.0775976,0.004044220333602468
1743759070.0785735,0.004049869861189905
1743759070.0795496,0.004050110266619157
1743759070.0805256,0.004053235537199442
1743759070.0815017,0.004047946617755884
1743759070.0824776,0.004041455671166063
1743759070.0834534,0.004038089995156526
1743759070.0844295,0.004030036413276562
1743759070.0854056,0.004038210197871152
1743759070.0863817,0.004046864793324247
1743759070.0873575,0.004048187023185137
1743759070.0883336,0.004044460739031721
1743759070.0893097,0.004056481010494353
1743759070.0902855,0.004065736619520579
1743759070.0912614,0.004069102295530116
1743759070.0922375,0.004071626552537269
1743759070.0932138,0.004062130538081789
1743759070.0941896,0.004047946617755884
1743759070.0951655,0.004030156615991189
1743759070.0961416,0.004040974860307558
1743759070.0971177,0.004078718512700221
1743759070.0980935,0.004108288380498295
1743759070.0990694,0.004101557028479222
1743759070.1000457,0.004092902433026127
1743759070.1010218,0.004085449864719295
1743759070.1019976,0.004049869861189905
1743759070.1029735,0.004049869861189905
1743759070.1039495,0.00407354979597129
1743759070.1049256,0.0040704245253910054
1743759070.1059015,0.004067299254810721
1743759070.1068773,0.004065856822235206
1743759070.1078537,0.004083767026714527
1743759070.1088297,0.004095186284604027
1743759070.1098056,0.004100114595903706
1743759070.1107814,0.004104321690915627
1743759070.1117575,0.004113457097227227
1743759070.1127336,0.004121510679107191
1743759070.1137094,0.004113937908085732
1743759070.1146855,0.004114058110800359
1743759070.1156616,0.004115500543375875
1743759070.1166377,0.00409182060859449
1743759070.1176136,0.004083406418570647
1743759070.1185894,0.004096628717179543
1743759070.1195655,0.004123554125255838
1743759070.1205418,0.0041203086519609276
1743759070.1215177,0.004115620746090501
1743759070.1224935,0.004116341962378259
1743759070.1234696,0.004118625813956159
1743759070.1244457,0.0041158611515197535
1743759070.1254215,0.004110331826646943
1743759070.1263974,0.004112856083654096
1743759070.1273735,0.004110452029361569
1743759070.1283498,0.004102398447481606
1743759070.1293256,0.004086651891865558
1743759070.1303015,0.004084848851146163
1743759070.1312776,0.004088334729870327
1743759070.1322536,0.004072467971539653
1743759070.1332295,0.004069583106388621
1743759070.1342053,0.004056481010494353
1743759070.1351817,0.004064654795088943
1743759070.1361578,0.004058404253928374
1743759070.1371336,0.004072828579683532
1743759070.1381094,0.004078718512700221
1743759070.1390855,0.004084247837573032
1743759070.1400616,0.004081362972422
1743759070.1410375,0.004092061014023742
1743759070.1420135,0.004096869122608795
1743759070.1429896,0.0040950660818894
1743759070.1439657,0.004107326758781285
1743759070.1449416,0.004115620746090501
1743759070.1459174,0.004117664192239148
1743759070.1468935,0.004112735880939469
1743759070.1478696,0.004112014664651712
1743759070.1488457,0.0041014368257645956
1743759070.1498215,0.004105884326205769
1743759070.1507976,0.004108528785927548
1743759070.1517737,0.004112735880939469
1743759070.1527495,0.004113457097227227
1743759070.1537254,0.0041044418936302535
1743759070.1547015,0.004111173245649327
1743759070.1556778,0.004118385408526906
1743759070.1566536,0.004125717774119112
1743759070.1576295,0.004132088517994307
1743759070.1586056,0.004151441155049143
1743759070.1595817,0.004159494736929107
1743759070.1605575,0.0041568502772073275
1743759070.1615334,0.004154806831058681
1743759070.1625097,0.004170072575816223
1743759070.1634858,0.0041687503459553335
1743759070.1644616,0.004140021897159643
1743759070.1654375,0.004123193517111959
1743759070.1664135,0.004129323855557901
1743759070.1673896,0.0041081681777836694
1743759070.1683655,0.004077636688268584
1743759070.1693413,0.004087613513582569
1743759070.1703176,0.004092662027596874
1743759070.1712937,0.004094344865601643
1743759070.1722696,0.004098792366042816
1743759070.1732454,0.004110932840220074
1743759070.1742215,0.004121751084536443
1743759070.1751976,0.004122472300824201
1743759070.1761737,0.004106124731635022
1743759070.1771495,0.004088214527155701
1743759070.1781256,0.004080040742561111
1743759070.1791017,0.004091580203165237
1743759070.1800776,0.004109971218503064
1743759070.1810534,0.004109370204929933
1743759070.1820295,0.004112976286368722
1743759070.1830058,0.0041116540565078324
1743759070.1839817,0.0041195874356731695
1743759070.1849575,0.004128001625697012
1743759070.1859336,0.004150840141476012
1743759070.1869097,0.0041501189251882545
1743759070.1878855,0.004132208720708933
1743759070.1888614,0.0041391804781572596
1743759070.1898375,0.004162379602080139
1743759070.1908138,0.00415384520934167
1743759070.1917896,0.004145070411173949
1743759070.1927655,0.00412607838226299
1743759070.1937416,0.004124876355116727
1743759070.1947176,0.004112856083654096
1743759070.1956935,0.004096748919894169
1743759070.1966693,0.004107086353352032
1743759070.1976457,0.00411501973251737
1743759070.1986217,0.004104201488201001
1743759070.1995976,0.004084848851146163
1743759070.2005734,0.004087132702724064
1743759070.2015495,0.00410684594792278
1743759070.2025256,0.00411598135423438
1743759070.2035015,0.004122472300824201
1743759070.2044775,0.004132569328852811
1743759070.2054536,0.0041459118301763334
1743759070.2064297,0.004144108789456939
1743759070.2074056,0.0041491573034712435
1743759070.2083814,0.004157691696209712
1743759070.2093575,0.004140983518876654
1743759070.2103336,0.0041158611515197535
1743759070.2113097,0.004105042907203385
1743759070.2122855,0.004112856083654096
1743759070.2132616,0.004120428854675554
1743759070.2142377,0.004112255070080964
1743759070.2152135,0.004085930675577801
1743759070.2161894,0.004067900268383853
1743759070.2171655,0.004068741687386237
1743759070.2181418,0.004083526621285275
1743759070.2191176,0.00408460844571691
1743759070.2200935,0.004066818443952216
1743759070.2210696,0.004064173984230437
1743759070.2220457,0.004076915471980826
1743759070.2230215,0.004087733716297196
1743759070.2239974,0.004097830744325806
1743759070.2249737,0.004101196420335343
1743759070.2259498,0.004101557028479222
1743759070.2269256,0.004109610610359186
1743759070.2279015,0.004118746016670785
1743759070.2288775,0.004119948043817048
1743759070.2298536,0.004116221759663633
1743759070.2308295,0.00411826520581228
1743759070.2318053,0.00411730358409527
1743759070.2327816,0.004123554125255838
1743759070.2337577,0.004128482436555518
1743759070.2347336,0.004139300680871886
1743759070.2357094,0.004104321690915627
1743759070.2366855,0.004058163848499121
1743759070.2376616,0.004080882161563495
1743759070.2386377,0.004078838715414848
1743759070.2396135,0.004071386147108016
1743759070.2405896,0.004076074052978443
1743759070.2415657,0.004065255808662074
1743759070.2425416,0.0040745114176883
1743759070.2435174,0.004076314458407695
1743759070.2444935,0.004079559931702606
1743759070.2454698,0.004093022635740753
1743759070.2464457,0.0040972297307526745
1743759070.2474215,0.004077276080124706
1743759070.2483976,0.004073669998685916
1743759070.2493737,0.004105643920776517
1743759070.2503495,0.00412872284198477
1743759070.2513254,0.004134372369572206
1743759070.2523015,0.004127881422982385
1743759070.2532778,0.0041158611515197535
1743759070.2542536,0.00410552371806189
1743759070.2552295,0.004099994393189079
1743759070.2562056,0.004100835812191464
1743759070.2571816,0.004102278244766979
1743759070.2581575,0.004101196420335343
1743759070.2591333,0.004099753987759827
1743759070.2601097,0.004095546892747906
1743759070.2610857,0.004087493310867943
1743759070.2620616,0.004080160945275737
1743759070.2630374,0.004073309390542037
1743759070.2640135,0.004068501281956984
1743759070.2649896,0.004079920539846485
1743759070.2659655,0.004083887229429153
1743759070.2669415,0.004072588174254279
1743759070.2679176,0.004057082024067484
1743759070.2688937,0.004073068985112785
1743759070.2698696,0.0040823245941390114
1743759070.2708454,0.004077997296412463
1743759070.2718215,0.004067900268383853
1743759070.2727976,0.004055158780633463
1743759070.2737737,0.004053836550772573
1743759070.2747495,0.004055278983348089
1743759070.2757256,0.004061289119079405
1743759070.2767017,0.004070304322676379
1743759070.2776775,0.0040699437145325
1743759070.2786534,0.004066217430379084
1743759070.2796295,0.004057803240355242
1743759070.2806058,0.004042297090168447
1743759070.2815816,0.004046624387894994
1743759070.2825575,0.00405263452362631
1743759070.2835336,0.004073068985112785
1743759070.2845097,0.004091940811309117
1743759070.2854855,0.004102518650196232
1743759070.2864614,0.00410684594792278
1743759070.2874377,0.004098071149755058
1743759070.2884138,0.004084247837573032
1743759070.2893896,0.004078958918129474
1743759070.2903655,0.004070304322676379
1743759070.2913415,0.004050230469333784
1743759070.2923176,0.004044460739031721
1743759070.2932935,0.0040699437145325
1743759070.2942693,0.004070664930820258
1743759070.2952456,0.004061048713650153
1743759070.2962217,0.004058163848499121
1743759070.2971976,0.004054197158916453
1743759070.2981734,0.004060087091933142
1743759070.2991495,0.004061289119079405
1743759070.3001256,0.0040402536440198
1743759070.3011017,0.004018136344528557
1743759070.3020775,0.004020540398821083
1743759070.3030536,0.004034964724576242
1743759070.3040297,0.004041455671166063
1743759070.3050056,0.004052754726340937
1743759070.3059814,0.004050831482906915
1743759070.3069575,0.004062851754369548
1743759070.3079338,0.004062611348940295
1743759070.3089097,0.004049028442187521
1743759070.3098855,0.0040487880367582685
1743759070.3108616,0.004049869861189905
1743759070.3118377,0.004043138509170831
1743759070.3128135,0.004023906074830621
1743759070.3137894,0.004009000938216957
1743759070.3147655,0.004034243508288483
1743759070.3157418,0.00403893141415891
1743759070.3167176,0.004038330400585779
1743759070.3176935,0.004056120402350473
1743759070.3186696,0.004069823511817874
1743759070.3196456,0.004069102295530116
1743759070.3206215,0.0040562406050651005
1743759070.3215973,0.004058885064786879
1743759070.3225737,0.004056721415923605
1743759070.3235497,0.00402066060153571
1743759070.3245256,0.004016213101094536
1743759070.3255014,0.004012847425084999
1743759070.3264775,0.004034003102859231
1743759070.3274536,0.0040480668204705104
1743759070.3284295,0.004038811211444284
1743759070.3294055,0.004026310129123147
1743759070.3303816,0.004008640330073078
1743759070.3313577,0.004016934317382294
1743759070.3323336,0.004021261615108841
1743759070.3333094,0.004039171819588163
1743759070.3342855,0.004053115334484815
1743759070.3352616,0.00405263452362631
1743759070.3362377,0.004057803240355242
1743759070.3372135,0.004059125470216131
1743759070.3381896,0.004069823511817874
1743759070.3391657,0.004077756890983211
1743759070.3401415,0.0040711457416787635
1743759070.3411174,0.004061529524508657
1743759070.3420935,0.004060928510935526
1743759070.3430698,0.004076434661122321
1743759070.3440456,0.004073669998685916
1743759070.3450215,0.004057923443069868
1743759070.3459976,0.004052394118197058
1743759070.3469737,0.004045181955319479
1743759070.3479495,0.0040406142521636785
1743759070.3489254,0.004036046549007878
1743759070.3499017,0.004026069723693894
1743759070.3508778,0.004013929249516636
1743759070.3518536,0.00402294445311361
1743759070.3528295,0.004021381817823468
1743759070.3538055,0.004023665669401368
1743759070.3547816,0.004031719251281331
1743759070.3557575,0.004032200062139836
1743759070.3567333,0.004035445535434746
1743759070.3577096,0.004035685940863999
1743759070.3586857,0.004038691008729657
1743759070.3596616,0.0040311182377082
1743759070.3606374,0.004028714183415673
1743759070.3616135,0.0040224636422551046
1743759070.3625896,0.004025108101976884
1743759070.3635657,0.004032801075712968
1743759070.3645415,0.0040408546575929315
1743759070.3655176,0.004061649727223285
1743759070.3664937,0.004053716348057947
1743759070.3674695,0.004031839453995957
1743759070.3684454,0.004043619320029336
1743759070.3694215,0.0040483072258997626
1743759070.3703978,0.0040483072258997626
1743759070.3713737,0.004052394118197058
1743759070.3723495,0.004054677969774958
1743759070.3733256,0.004056481010494353
1743759070.3743017,0.004055639591491969
1743759070.3752775,0.004054317361631078
1743759070.3762534,0.004056721415923605
1743759070.3772295,0.004075352836690685
1743759070.3782058,0.004081002364278121
1743759070.3791816,0.00408268520228289
1743759070.3801575,0.0040704245253910054
1743759070.3811336,0.004061649727223285
1743759070.3821096,0.004060567902791647
1743759070.3830855,0.004056841618638232
1743759070.3840613,0.004047946617755884
1743759070.3850377,0.004026069723693894
1743759070.3860137,0.003985922017008704
1743759070.3869896,0.004016573709238415
1743759070.3879654,0.004043979928173216
1743759070.3889415,0.004059245672930758
1743759070.3899176,0.00403893141415891
1743759070.3908935,0.004031478845852078
1743759070.3918695,0.004047105198753499
1743759070.3928456,0.004054197158916453
1743759070.3938217,0.004062370943511042
1743759070.3947976,0.004074271012259048
1743759070.3957734,0.0040704245253910054
1743759070.3967495,0.0040627315516549205
1743759070.3977256,0.004071746755251895
1743759070.3987017,0.004079800337131858
1743759070.3996775,0.004079439728987979
1743759070.4006536,0.004087613513582569
1743759070.4016297,0.004084127634858406
1743759070.4026055,0.004080761958848869
1743759070.4035814,0.004081122566992748
1743759070.4045575,0.004081242769707374
1743759070.4055338,0.004080761958848869
1743759070.4065096,0.004068621484671611
1743759070.4074855,0.004056120402350473
1743759070.4084616,0.004057442632211364
1743759070.4094377,0.0040585244566429994
1743759070.4104135,0.004063332565228053
1743759070.4113894,0.004061168916364779
1743759070.4123657,0.004054076956201826
1743759070.4133418,0.004050230469333784
1743759070.4143176,0.004052394118197058
1743759070.4152935,0.004054076956201826
1743759070.4162695,0.0040555193887773415
1743759070.4172456,0.004059726483789263
1743759070.4182215,0.0040450617526048525
1743759070.4191973,0.004039292022302789
1743759070.4201736,0.004030397021420442
1743759070.4211497,0.004038811211444284
1743759070.4221256,0.0040441001308878415
1743759070.4231014,0.0040450617526048525
1743759070.4240775,0.0040448213471755996
1743759070.4250536,0.004064534592374316
1743759070.4260297,0.004090378176018974
1743759070.4270055,0.004084247837573032
1743759070.4279816,0.004081483175136627
1743759070.4289577,0.004080641756134242
1743759070.4299335,0.004111173245649327
1743759070.4309094,0.0041240349361143435
1743759070.4318855,0.004133891558713702
1743759070.4328618,0.004108889394071427
1743759070.4338377,0.004090137770589722
1743759070.4348135,0.004058284051213747
1743759070.4357896,0.004045422360748731
1743759070.4367657,0.004068381079242358
1743759070.4377415,0.004081963985995132
1743759070.4387174,0.004082805404997516
1743759070.4396935,0.004068020471098479
1743759070.4406698,0.004080040742561111
1743759070.4416456,0.0040855700674339215
1743759070.4426215,0.00408172358056588
1743759070.4435976,0.00408268520228289
1743759070.4445736,0.004095667095462532
1743759070.4455495,0.004096027703606411
1743759070.4465253,0.004088454932584953
1743759070.4475017,0.004091580203165237
1743759070.4484777,0.00409542669003328
1743759070.4494536,0.004091460000450611
1743759070.4504294,0.004107206556066659
1743759070.4514055,0.0041158611515197535
1743759070.4523816,0.0041044418936302535
1743759070.4533575,0.004103119663769364
1743759070.4543335,0.0040979509470404326
1743759070.4553096,0.004084728648431538
1743759070.4562857,0.0041123752727955905
1743759070.4572616,0.004134372369572206
1743759070.4582374,0.004143387573169181
1743759070.4592135,0.004153484601197791
1743759070.4601896,0.004163100818367896
1743759070.4611657,0.004159134128785228
1743759070.4621415,0.004145551222032454
1743759070.4631176,0.004136175410291601
1743759070.4640937,0.0041384592618695015
1743759070.4650695,0.004126919801265375
1743759070.4660454,0.0041391804781572596
1743759070.4670215,0.004151921965907649
1743759070.4679978,0.004169351359528465
1743759070.4689736,0.0041806504147033395
1743759070.4699495,0.0041903868345880705
1743759070.4709256,0.0041911080508758285
1743759070.4719017,0.004158172507068218
1743759070.4728775,0.004158292709782844
1743759070.4738533,0.004177645346837682
1743759070.4748297,0.0041615381830777546
1743759070.4758058,0.004128242031126265
1743759070.4767816,0.0041307662881334166
1743759070.4777575,0.00413689662657936
1743759070.4787335,0.004150719938761386
1743759070.4797096,0.004149758317044375
1743759070.4806855,0.004146512843749465
1743759070.4816616,0.004148075479039607
1743759070.4826376,0.004152402776766154
1743759070.4836137,0.004156730074492702
1743759070.4845896,0.004170673589389355
1743759070.4855654,0.004169231156813839
1743759070.4865415,0.004162139196650886
1743759070.4875176,0.004157932101638965
1743759070.4884937,0.004143748181313059
1743759070.4894695,0.00413653601843548
1743759070.4904456,0.004129684463701781
1743759070.4914217,0.004115260137946622
1743759070.4923975,0.004115620746090501
1743759070.4933734,0.004119707638387796
1743759070.4943495,0.0041528835876246594
1743759070.4953258,0.004187021158578534
1743759070.4963017,0.004195916159460881
1743759070.4972775,0.004199762646328924
1743759070.4982536,0.004201565687048318
1743759070.4992297,0.004170553386674728
1743759070.5002055,0.004179448387557076
1743759070.5011814,0.004196156564890134
1743759070.5021574,0.004201325281619065
1743759070.5031338,0.004200243457187429
1743759070.5041096,0.004196757578463266
1743759070.5050855,0.004206854606491876
1743759070.5060616,0.004209859674357534
1743759070.5070376,0.00421586981008885
1743759070.5080135,0.004218394067096003
1743759070.5089893,0.004223081972966429
1743759070.5099657,0.00421490818837184
1743759070.5109417,0.004204931363057856
1743759070.5119176,0.0042018060924775705
1743759070.5128934,0.004188343388439424
1743759070.5138695,0.004171635211106365
1743759070.5148456,0.004171875616535618
1743759070.5158215,0.004192670686165971
1743759070.5167975,0.004200483862616682
1743759070.5177736,0.004220557715959277
1743759070.5187497,0.004225245621829703
1743759070.5197256,0.0042281304869807345
1743759070.5207014,0.004239309339440982
1743759070.5216775,0.004237265893292335
