1742986078.8460693,0.0016780298961833987
1742986078.8465571,0.0016780298961833987
1742986078.8470452,0.0016780298961833987
1742986078.8475332,0.0016780298961833987
1742986078.8480213,0.0016780298961833987
1742986078.848509,0.0016780298961833987
1742986078.8489974,0.0016780298961833987
1742986078.8494854,0.0016780298961833987
1742986078.8499732,0.0016780298961833987
1742986078.8504612,0.0016780298961833987
1742986078.850949,0.0016780298961833987
1742986078.8514373,0.0016780298961833987
1742986078.8519251,0.0016780298961833987
1742986078.8524132,0.0016780298961833987
1742986078.8529015,0.0016780298961833987
1742986078.8533893,0.0016780298961833987
1742986078.8538773,0.0017059169259767048
1742986078.854365,0.001717456386580831
1742986078.8548532,0.0017241877385999048
1742986078.8553412,0.001728034225467947
1742986078.8558292,0.001740535307789084
1742986078.8563173,0.0017318807123359893
1742986078.8568053,0.001728034225467947
1742986078.8572934,0.0017251493603169155
1742986078.8577812,0.001717456386580831
1742986078.8582692,0.0017184180082978418
1742986078.858757,0.001711686656278768
1742986078.8592453,0.0017155331431468101
1742986078.8597333,0.0016963007088065991
1742986078.8602211,0.0016895693567875252
1742986078.8607094,0.001676106652749378
1742986078.8611972,0.0016857228699194832
1742986078.8616853,0.0016741834093153567
1742986078.862173,0.0016568742184091669
1742986078.8626611,0.0016482196229560722
1742986078.8631494,0.0016453347578050403
1742986078.8636372,0.0016261023234648295
1742986078.8641253,0.0016232174583137979
1742986078.8646133,0.0016251407017478189
1742986078.8651013,0.00160879313255864
1742986078.8655891,0.0016030234022565764
1742986078.8660772,0.001582829346199355
1742986078.8665652,0.0015837909679163656
1742986078.8670533,0.0015780212376143023
1742986078.8675413,0.001584752589633376
1742986078.868029,0.0015972536719545134
1742986078.8685174,0.0015876374547844076
1742986078.8690052,0.0015712898855952285
1742986078.8694932,0.0015664817770101758
1742986078.8699813,0.0015664817770101758
1742986078.870469,0.001572251507312239
1742986078.8709574,0.0015645585335761546
1742986078.8714452,0.001578982859331313
1742986078.8719332,0.0015799444810483234
1742986078.8724213,0.0015943688068034815
1742986078.8729093,0.00159148394165245
1742986078.8733974,0.0016030234022565764
1742986078.8738852,0.0016164861062947242
1742986078.8743732,0.0016164861062947242
1742986078.8748612,0.0016232174583137979
1742986078.8753493,0.0016337952972009138
1742986078.875837,0.0016299488103328715
1742986078.8763254,0.0016309104320498822
1742986078.8768134,0.0016337952972009138
1742986078.8773012,0.0016280255668988505
1742986078.8777893,0.0016299488103328715
1742986078.878277,0.0016357185406349348
1742986078.8787653,0.0016347569189179242
1742986078.8792531,0.0016232174583137979
1742986078.8797412,0.0016136012411436926
1742986078.8802295,0.0016049466456905977
1742986078.8807173,0.001582829346199355
1742986078.8812053,0.0015635969118591442
1742986078.8816931,0.001553019072972028
1742986078.8821812,0.001534748260348828
1742986078.8826692,0.0015318633951977962
1742986078.8831573,0.0015376331254998595
1742986078.8836453,0.0015405179906508911
1742986078.8841333,0.0015482109643869754
1742986078.8846214,0.0015482109643869754
1742986078.8851092,0.001549172586103986
1742986078.8855972,0.0015568655598400703
1742986078.886085,0.0015578271815570807
1742986078.8865733,0.001570328263878218
1742986078.8870614,0.0015626352901421338
1742986078.8875492,0.0015549423164060493
1742986078.8880374,0.0015684050204441968
1742986078.8885252,0.0015635969118591442
1742986078.8890133,0.0015732131290292495
1742986078.889501,0.001570328263878218
1742986078.8899891,0.0015674433987271864
1742986078.8904774,0.0015568655598400703
1742986078.8909652,0.0015635969118591442
1742986078.8914533,0.0015587888032740915
1742986078.8919413,0.0015607120467081125
1742986078.8924294,0.0015587888032740915
1742986078.8929172,0.0015760979941802811
1742986078.8934052,0.0015684050204441968
1742986078.893893,0.0015760979941802811
1742986078.8943813,0.001582829346199355
1742986078.8948693,0.0015962920502375025
1742986078.8953571,0.0015962920502375025
1742986078.8958454,0.0015885990765014183
1742986078.8963332,0.0015972536719545134
1742986078.8968213,0.0015905223199354395
1742986078.897309,0.0015934071850864711
1742986078.897797,0.0015895606982184289
1742986078.8982854,0.0015809061027653338
1742986078.8987732,0.0015953304285204921
1742986078.8992612,0.0015895606982184289
1742986078.8997493,0.0015991769153885342
1742986078.9002373,0.0015924455633694603
1742986078.9007254,0.00160879313255864
1742986078.9012132,0.0016049466456905977
1742986078.9017012,0.001602061780539566
1742986078.9021893,0.0015991769153885342
1742986078.9026773,0.0015809061027653338
1742986078.903165,0.001559750424991102
1742986078.9036534,0.0015357098820658385
1742986078.9041414,0.0015280169083297542
1742986078.9046292,0.0015193623128766593
1742986078.9051173,0.0015203239345936697
1742986078.905605,0.0015212855563106803
1742986078.9060934,0.001524170421461712
1742986078.9065812,0.0015270552866127436
1742986078.9070692,0.0015280169083297542
1742986078.9075575,0.0015222471780276907
1742986078.9080453,0.001524170421461712
1742986078.9085333,0.0015251320431787223
1742986078.9090211,0.001529940151763775
1742986078.9095092,0.0015289785300467646
1742986078.9099972,0.0015357098820658385
1742986078.9104853,0.0015270552866127436
1742986078.910973,0.0015357098820658385
1742986078.9114614,0.0015510958295380072
1742986078.9119494,0.0015549423164060493
1742986078.9124372,0.0015578271815570807
1742986078.9129252,0.0015626352901421338
1742986078.913413,0.0015626352901421338
1742986078.9139013,0.001559750424991102
1742986078.9143891,0.0015539806946890387
1742986078.9148772,0.001547249342669965
1742986078.9153655,0.0015376331254998595
1742986078.9158533,0.0015568655598400703
1742986078.9163413,0.0015568655598400703
1742986078.916829,0.0015453260992359438
1742986078.9173172,0.0015578271815570807
1742986078.9178052,0.0015578271815570807
1742986078.9182932,0.0015684050204441968
1742986078.9187813,0.0015732131290292495
1742986078.9192693,0.001570328263878218
1742986078.9197574,0.0015953304285204921
1742986078.9202452,0.001584752589633376
1742986078.9207332,0.0015905223199354395
1742986078.921221,0.0015818677244823446
1742986078.9217093,0.0015837909679163656
1742986078.9221973,0.0015760979941802811
1742986078.9226851,0.001561673668425123
1742986078.9231734,0.0015578271815570807
1742986078.9236612,0.0015539806946890387
1742986078.9241493,0.001559750424991102
1742986078.924637,0.0015520574512550176
1742986078.9251251,0.001561673668425123
1742986078.9256134,0.0015568655598400703
1742986078.9261012,0.0015501342078209964
1742986078.9265893,0.0015568655598400703
1742986078.9270773,0.0015501342078209964
1742986078.9275653,0.0015520574512550176
1742986078.9280531,0.0015520574512550176
1742986078.9285412,0.0015549423164060493
1742986078.9290292,0.0015549423164060493
1742986078.9295173,0.0015414796123679015
1742986078.9300053,0.0015568655598400703
1742986078.930493,0.0015645585335761546
1742986078.9309814,0.0015732131290292495
1742986078.9314692,0.0015741747507462603
1742986078.9319572,0.0015741747507462603
1742986078.9324453,0.001578982859331313
1742986078.932933,0.0015876374547844076
1742986078.9334214,0.0015818677244823446
1742986078.9339092,0.001578982859331313
1742986078.9343972,0.0015905223199354395
1742986078.9348853,0.0015934071850864711
1742986078.9353733,0.0015972536719545134
1742986078.9358613,0.001607831510841629
1742986078.9363492,0.001607831510841629
1742986078.9368372,0.0016232174583137979
1742986078.9373252,0.0016232174583137979
1742986078.9378133,0.0016184093497287452
1742986078.938301,0.001614562862860703
1742986078.9387894,0.0016049466456905977
1742986078.9392774,0.001612639619426682
1742986078.9397652,0.0016068698891246187
1742986078.9402533,0.0015895606982184289
1742986078.940741,0.001584752589633376
1742986078.9412293,0.0015760979941802811
1742986078.9417171,0.001572251507312239
1742986078.9422052,0.0015645585335761546
1742986078.9426935,0.0015626352901421338
1742986078.9431813,0.001549172586103986
1742986078.9436693,0.0015424412340849121
1742986078.9441571,0.001549172586103986
1742986078.9446452,0.0015674433987271864
1742986078.9451332,0.001572251507312239
1742986078.9456213,0.001582829346199355
1742986078.9461093,0.0015876374547844076
1742986078.9465973,0.0015684050204441968
1742986078.9470854,0.0015741747507462603
1742986078.9475732,0.0015664817770101758
1742986078.9480612,0.001559750424991102
1742986078.948549,0.0015434028558019227
1742986078.9490373,0.00153859474721687
1742986078.9495254,0.001524170421461712
1742986078.9500132,0.001526093664895733
1742986078.9505014,0.0015126309608575854
1742986078.9509892,0.0015145542042916064
1742986078.9514773,0.0015135925825745958
1742986078.951965,0.0015087844739895431
1742986078.9524531,0.0015078228522725327
1742986078.9529414,0.001511669339140575
1742986078.9534292,0.0015135925825745958
1742986078.9539173,0.001524170421461712
1742986078.9544053,0.0015270552866127436
1742986078.9548934,0.0015222471780276907
1742986078.9553812,0.001534748260348828
1742986078.9558692,0.001534748260348828
1742986078.956357,0.0015434028558019227
1742986078.9568453,0.0015462877209529542
1742986078.9573333,0.00155590393812306
1742986078.9578211,0.0015674433987271864
1742986078.9583094,0.0015674433987271864
1742986078.9587972,0.0015674433987271864
1742986078.9592853,0.0015741747507462603
1742986078.9597733,0.001605908267407608
1742986078.960261,0.0016261023234648295
1742986078.9607494,0.0016347569189179242
1742986078.9612372,0.0016424498926540087
1742986078.9617252,0.001646296379522051
1742986078.9622133,0.001646296379522051
1742986078.9627013,0.0016366801623519456
1742986078.9631894,0.0016164861062947242
1742986078.9636772,0.0016261023234648295
1742986078.9641652,0.0016299488103328715
1742986078.9646533,0.0016107163759926607
1742986078.9651413,0.0016174477280117346
1742986078.965629,0.001612639619426682
1742986078.9661174,0.0016039850239735868
1742986078.9666054,0.0015924455633694603
1742986078.9670932,0.0015943688068034815
1742986078.9675813,0.0015895606982184289
1742986078.968069,0.0015885990765014183
1742986078.9685574,0.0015809061027653338
1742986078.9690452,0.0015645585335761546
1742986078.9695332,0.001547249342669965
1742986078.9700215,0.001547249342669965
1742986078.9705093,0.0015520574512550176
1742986078.9709973,0.0015626352901421338
1742986078.9714851,0.0015732131290292495
1742986078.9719732,0.001559750424991102
1742986078.9724612,0.0015549423164060493
1742986078.9729493,0.001553019072972028
1742986078.973437,0.0015453260992359438
1742986078.9739254,0.0015443644775189334
1742986078.9744134,0.001549172586103986
1742986078.9749012,0.0015607120467081125
1742986078.9753892,0.0015693666421612072
1742986078.975877,0.001582829346199355
1742986078.9763653,0.0015924455633694603
1742986078.9768531,0.0015837909679163656
1742986078.9773412,0.00159148394165245
1742986078.9778295,0.0015991769153885342
1742986078.9783173,0.0016097547542756503
1742986078.9788053,0.00160879313255864
1742986078.979293,0.0016337952972009138
1742986078.9797812,0.0016337952972009138
1742986078.9802692,0.0016337952972009138
1742986078.9807572,0.001643411514371019
1742986078.9812453,0.0016530277315411248
1742986078.9817333,0.0016597590835601987
1742986078.9822214,0.0016645671921452514
1742986078.9827092,0.0016626439487112301
1742986078.9831972,0.0016712985441643252
1742986078.983685,0.0016751450310323673
1742986078.9841733,0.0016549509749751456
1742986078.9846613,0.0016328336754839034
1742986078.9851491,0.0016164861062947242
1742986078.9856374,0.0016097547542756503
1742986078.9861252,0.0016193709714457556
1742986078.9866133,0.0016261023234648295
1742986078.987101,0.0016328336754839034
1742986078.9875891,0.0016193709714457556
1742986078.9880774,0.0016155244845777134
1742986078.9885652,0.0015991769153885342
1742986078.9890532,0.0015895606982184289
1742986078.9895413,0.0015693666421612072
1742986078.9900293,0.0015462877209529542
1742986078.9905171,0.001529940151763775
1742986078.9910052,0.0015280169083297542
1742986078.9914932,0.0015376331254998595
1742986078.9919813,0.0015482109643869754
1742986078.9924693,0.0015626352901421338
1742986078.992957,0.0015732131290292495
1742986078.9934454,0.0015655201552931652
1742986078.9939332,0.0015712898855952285
1742986078.9944212,0.001572251507312239
1742986078.9949093,0.0015866758330673972
1742986078.995397,0.0015953304285204921
1742986078.9958854,0.0015934071850864711
1742986078.9963732,0.0015991769153885342
1742986078.9968612,0.0015972536719545134
1742986078.9973493,0.0015953304285204921
1742986078.9978373,0.0015953304285204921
1742986078.9983253,0.0016001385371055448
1742986078.9988132,0.0015953304285204921
1742986078.9993012,0.0015905223199354395
1742986078.9997892,0.0015895606982184289
1742986079.0002773,0.0015962920502375025
1742986079.000765,0.0015934071850864711
1742986079.0012534,0.0015934071850864711
1742986079.0017414,0.0015991769153885342
1742986079.0022292,0.0016011001588225554
1742986079.0027173,0.001614562862860703
1742986079.003205,0.001607831510841629
1742986079.0036933,0.0015982152936715238
1742986079.0041811,0.0015982152936715238
1742986079.0046692,0.0015972536719545134
1742986079.0051575,0.0016174477280117346
1742986079.0056453,0.0016174477280117346
1742986079.0061333,0.0016164861062947242
1742986079.0066211,0.0016222558365967873
1742986079.0071092,0.0016261023234648295
1742986079.0075972,0.0016299488103328715
1742986079.0080853,0.0016386034057859664
1742986079.0085733,0.0016251407017478189
1742986079.0090613,0.001637641784068956
1742986079.0095494,0.0016241790800308085
1742986079.0100372,0.001612639619426682
1742986079.0105252,0.001602061780539566
1742986079.011013,0.00159148394165245
1742986079.0115013,0.0016001385371055448
1742986079.0119894,0.0015924455633694603
1742986079.0124772,0.0016049466456905977
1742986079.0129654,0.0016164861062947242
1742986079.0134532,0.00162706394518184
1742986079.0139413,0.0016309104320498822
1742986079.014429,0.0016261023234648295
1742986079.0149171,0.0016328336754839034
1742986079.0154054,0.0016386034057859664
1742986079.0158932,0.0016472580012390613
1742986079.0163813,0.001646296379522051
1742986079.0168693,0.0016539893532581352
1742986079.0173573,0.0016491812446730826
1742986079.0178452,0.00164437313608803
1742986079.0183332,0.0016337952972009138
1742986079.018821,0.0016261023234648295
1742986079.0193093,0.0016328336754839034
1742986079.0197973,0.0016328336754839034
1742986079.0202851,0.0016193709714457556
1742986079.0207734,0.0016049466456905977
1742986079.0212612,0.0015751363724632707
1742986079.0217493,0.0015414796123679015
1742986079.0222373,0.0015414796123679015
1742986079.022725,0.0015453260992359438
1742986079.0232134,0.0015309017734807858
1742986079.0237012,0.0015434028558019227
1742986079.0241892,0.001524170421461712
1742986079.0246773,0.0015270552866127436
1742986079.0251653,0.0015193623128766593
1742986079.0256534,0.0015251320431787223
1742986079.0261412,0.001524170421461712
1742986079.0266292,0.0015097460957065538
1742986079.0271173,0.0015135925825745958
1742986079.0276053,0.0015232087997447015
1742986079.028093,0.0015212855563106803
1742986079.0285814,0.0015289785300467646
1742986079.0290694,0.0015405179906508911
1742986079.0295572,0.0015443644775189334
1742986079.0300453,0.0015510958295380072
1742986079.030533,0.0015587888032740915
1742986079.0310214,0.0015664817770101758
1742986079.0315092,0.0015712898855952285
1742986079.0319972,0.0015684050204441968
1742986079.0324855,0.0015732131290292495
1742986079.0329733,0.0015809061027653338
1742986079.0334613,0.0015866758330673972
1742986079.0339491,0.0015866758330673972
1742986079.0344372,0.0015982152936715238
1742986079.0349252,0.0016039850239735868
1742986079.0354133,0.0016097547542756503
1742986079.035901,0.0016174477280117346
1742986079.0363894,0.001614562862860703
1742986079.0368774,0.0016097547542756503
1742986079.0373652,0.0016107163759926607
1742986079.0378532,0.0015991769153885342
1742986079.038341,0.0015982152936715238
1742986079.0388293,0.0016097547542756503
1742986079.0393171,0.0016155244845777134
1742986079.0398052,0.0016337952972009138
1742986079.0402935,0.0016357185406349348
1742986079.0407813,0.001637641784068956
1742986079.0412693,0.0016337952972009138
1742986079.041757,0.0016337952972009138
1742986079.0422451,0.0016386034057859664
1742986079.0427334,0.0016587974618431879
1742986079.0432212,0.0016587974618431879
1742986079.0437093,0.00167995313961742
1742986079.0441973,0.0016914926002215465
1742986079.0446854,0.001690530978504536
1742986079.0451732,0.001690530978504536
1742986079.0456612,0.0016895693567875252
1742986079.046149,0.0016895693567875252
1742986079.0466373,0.0016943774653725783
1742986079.0471253,0.0017020704391086626
1742986079.0476131,0.0017020704391086626
1742986079.0481014,0.001690530978504536
1742986079.0485892,0.001673221787598346
1742986079.0490773,0.0016684136790132934
1742986079.049565,0.0016770682744663883
1742986079.0500531,0.001681876383051441
1742986079.0505414,0.0016847612482024726
1742986079.0510292,0.0017001471956746414
1742986079.0515172,0.0017068785476937152
1742986079.0520053,0.0017155331431468101
1742986079.0524933,0.0017338039557700106
1742986079.0529811,0.0017395736860720736
1742986079.0534692,0.001726110982033926
1742986079.0539572,0.0017395736860720736
1742986079.0544453,0.0017338039557700106
1742986079.0549333,0.001728034225467947
1742986079.055421,0.001722264495165884
1742986079.0559094,0.0017164947648638205
1742986079.0563972,0.001711686656278768
1742986079.0568852,0.0017020704391086626
1742986079.0573733,0.001722264495165884
1742986079.057861,0.0017088017911277363
1742986079.0583494,0.0017164947648638205
1742986079.0588372,0.001711686656278768
1742986079.0593252,0.001711686656278768
1742986079.0598133,0.001711686656278768
1742986079.0603013,0.0017145715214297995
1742986079.0607893,0.001717456386580831
1742986079.0612772,0.0017213028734488732
1742986079.0617652,0.001734765577487021
1742986079.0622532,0.0017376504426380526
1742986079.0627413,0.0017443817946571263
1742986079.063229,0.001745343416374137
1742986079.0637174,0.0017722688244504322
1742986079.0642054,0.0017722688244504322
1742986079.0646932,0.0017751536896014636
1742986079.0651813,0.0017799617981865167
1742986079.065669,0.001780923419903527
1742986079.0661573,0.0017780385547524955
1742986079.0666451,0.0017751536896014636
1742986079.0671332,0.0017761153113184745
1742986079.0676215,0.0017780385547524955
1742986079.0681093,0.0017607293638463057
1742986079.0685973,0.001747266659808158
1742986079.0690851,0.0017463050380911475
1742986079.0695732,0.0017376504426380526
1742986079.0700612,0.001745343416374137
1742986079.0705492,0.001728034225467947
1742986079.0710373,0.0017270726037509367
1742986079.0715253,0.001717456386580831
1742986079.0720134,0.001704955304259694
1742986079.0725012,0.0016972623305236097
1742986079.0729892,0.0016982239522406203
1742986079.073477,0.001699185573957631
1742986079.0739653,0.0016895693567875252
1742986079.0744534,0.00167995313961742
1742986079.0749412,0.001676106652749378
1742986079.0754294,0.001669375300730304
1742986079.0759172,0.0016684136790132934
1742986079.0764053,0.001681876383051441
1742986079.076893,0.0016664904355792722
1742986079.0773811,0.0016703369224473144
1742986079.0778694,0.0016712985441643252
1742986079.0783572,0.0016837996264854622
1742986079.0788453,0.0016934158436555675
1742986079.0793333,0.0016943774653725783
1742986079.0798213,0.0016943774653725783
1742986079.0803092,0.0017020704391086626
1742986079.0807972,0.001699185573957631
1742986079.0812852,0.0016982239522406203
1742986079.0817733,0.001690530978504536
1742986079.0822613,0.0016857228699194832
1742986079.0827491,0.0016943774653725783
1742986079.0832374,0.0016972623305236097
1742986079.0837252,0.0016895693567875252
1742986079.0842133,0.0016943774653725783
1742986079.0847013,0.0017001471956746414
1742986079.085189,0.0017001471956746414
1742986079.0856774,0.0017001471956746414
1742986079.0861652,0.001704955304259694
1742986079.0866532,0.0016934158436555675
1742986079.0871413,0.0016914926002215465
1742986079.0876293,0.001692454221938557
1742986079.0881174,0.0016770682744663883
1742986079.0886052,0.001660720705277209
1742986079.0890932,0.0016414882709369983
1742986079.0895813,0.0016328336754839034
1742986079.0900693,0.0016193709714457556
1742986079.090557,0.0016212942148797769
1742986079.0910454,0.0016203325931627662
1742986079.0915334,0.001614562862860703
1742986079.0920212,0.0016107163759926607
1742986079.0925093,0.0016193709714457556
1742986079.092997,0.0016155244845777134
1742986079.0934854,0.0016174477280117346
1742986079.0939732,0.0016318720537668926
1742986079.0944612,0.0016328336754839034
1742986079.0949495,0.0016395650275029768
1742986079.0954373,0.0016337952972009138
1742986079.0959253,0.0016337952972009138
1742986079.0964131,0.00164437313608803
1742986079.0969012,0.0016549509749751456
1742986079.0973892,0.0016530277315411248
1742986079.0978773,0.0016578358401261775
1742986079.098365,0.001667452057296283
1742986079.0988533,0.0016722601658813356
1742986079.0993414,0.001669375300730304
1742986079.0998292,0.0016655288138622618
1742986079.1003172,0.0016664904355792722
1742986079.100805,0.0016587974618431879
1742986079.1012933,0.0016587974618431879
1742986079.1017811,0.0016559125966921565
1742986079.1022692,0.0016491812446730826
1742986079.1027575,0.001650142866390093
1742986079.1032453,0.00164437313608803
1742986079.1037333,0.0016337952972009138
1742986079.104221,0.0016386034057859664
1742986079.1047091,0.0016251407017478189
1742986079.1051974,0.0016136012411436926
1742986079.1056852,0.0016097547542756503
1742986079.1061733,0.001607831510841629
1742986079.1066613,0.001607831510841629
1742986079.1071494,0.001607831510841629
1742986079.1076372,0.001605908267407608
1742986079.1081252,0.0016155244845777134
1742986079.108613,0.0016193709714457556
1742986079.1091013,0.001607831510841629
1742986079.1095893,0.0016097547542756503
1742986079.1100771,0.0016136012411436926
1742986079.1105654,0.0016116779977096713
1742986079.1110532,0.0016039850239735868
1742986079.1115413,0.0016203325931627662
1742986079.112029,0.0016212942148797769
1742986079.112517,0.0016261023234648295
1742986079.1130054,0.0016193709714457556
1742986079.1134932,0.0016184093497287452
1742986079.1139812,0.0016001385371055448
1742986079.1144693,0.0015924455633694603
1742986079.1149573,0.0015837909679163656
1742986079.1154451,0.0015626352901421338
1742986079.1159332,0.0015760979941802811
1742986079.1164212,0.0015751363724632707
1742986079.1169093,0.0015760979941802811
1742986079.1173973,0.0015866758330673972
1742986079.117885,0.001582829346199355
1742986079.1183734,0.0015895606982184289
1742986079.1188612,0.0015962920502375025
1742986079.1193492,0.001602061780539566
1742986079.1198373,0.0016001385371055448
1742986079.120325,0.0016001385371055448
1742986079.1208134,0.0016011001588225554
1742986079.1213012,0.0016193709714457556
1742986079.1217892,0.0016241790800308085
1742986079.1222773,0.0016212942148797769
1742986079.1227653,0.0016261023234648295
1742986079.1232533,0.0016241790800308085
1742986079.1237411,0.0015962920502375025
1742986079.1242292,0.0015905223199354395
1742986079.1247172,0.0015760979941802811
1742986079.1252053,0.00155590393812306
1742986079.125693,0.0015405179906508911
1742986079.1261814,0.0015280169083297542
1742986079.1266694,0.0015212855563106803
1742986079.1271572,0.0015434028558019227
1742986079.1276453,0.0015405179906508911
1742986079.128133,0.0015405179906508911
1742986079.1286213,0.001549172586103986
1742986079.1291091,0.0015501342078209964
1742986079.1295972,0.0015501342078209964
1742986079.1300855,0.0015376331254998595
1742986079.1305733,0.0015453260992359438
1742986079.1310613,0.0015434028558019227
1742986079.1315491,0.0015270552866127436
1742986079.1320372,0.001534748260348828
1742986079.1325252,0.0015376331254998595
1742986079.1330132,0.0015453260992359438
1742986079.1335013,0.0015443644775189334
1742986079.1339893,0.00155590393812306
1742986079.1344774,0.0015578271815570807
1742986079.1349652,0.0015587888032740915
1742986079.1354532,0.0015693666421612072
1742986079.135941,0.0015712898855952285
1742986079.1364293,0.0015751363724632707
1742986079.1369174,0.0015770596158972917
1742986079.1374052,0.0015635969118591442
1742986079.1378934,0.001547249342669965
1742986079.1383812,0.0015376331254998595
1742986079.1388693,0.0015222471780276907
1742986079.139357,0.0015107077174235642
1742986079.1398451,0.0015020531219704695
1742986079.1403334,0.0015020531219704695
1742986079.1408212,0.001494360148234385
1742986079.1413093,0.001481859065913248
1742986079.1417973,0.0014751277138941741
1742986079.1422853,0.0014760893356111845
1742986079.1427732,0.0014914752830833533
1742986079.1432612,0.0014982066351024272
1742986079.1437492,0.0014962833916684062
1742986079.1442373,0.0015001298785364485
1742986079.1447253,0.0015164774477256276
1742986079.1452131,0.0015337866386318172
1742986079.1457014,0.0015520574512550176
1742986079.1461892,0.001578982859331313
1742986079.1466773,0.0015991769153885342
1742986079.1471653,0.001614562862860703
1742986079.147653,0.0016116779977096713
1742986079.1481414,0.0016136012411436926
1742986079.1486292,0.0016395650275029768
1742986079.1491172,0.0016395650275029768
1742986079.1496053,0.001643411514371019
1742986079.1500933,0.0016597590835601987
1742986079.1505814,0.0016789915179004095
1742986079.1510692,0.0016982239522406203
1742986079.1515572,0.0017097634128447469
1742986079.1520452,0.0017213028734488732
1742986079.1525333,0.0017289958471849575
1742986079.153021,0.001736688820921042
1742986079.1535094,0.0017443817946571263
1742986079.1539974,0.0017539980118272318
1742986079.1544852,0.001796309367375696
1742986079.1549733,0.0018059255845458012
1742986079.155461,0.0018203499103009594
1742986079.1559494,0.0018270812623200332
1742986079.1564372,0.001833812614339107
1742986079.1569252,0.001842467209792202
1742986079.1574135,0.001846313696660244
1742986079.1579013,0.0018559299138303494
1742986079.1583893,0.001860738022415402
1742986079.1588771,0.0018703542395855078
1742986079.1593652,0.0018722774830195286
1742986079.1598532,0.001878047213321592
1742986079.1603413,0.001883816943623655
1742986079.160829,0.0018905482956427292
1742986079.1613173,0.001883816943623655
1742986079.1618054,0.0018770855916045816
1742986079.1622932,0.0018616996441324129
1742986079.1627812,0.0018588147789813812
1742986079.163269,0.0018597764006983916
1742986079.1637573,0.001860738022415402
1742986079.1642454,0.0018434288315092124
1742986079.1647332,0.0018491985618112755
1742986079.1652215,0.0018559299138303494
1742986079.1657093,0.0018501601835282863
1742986079.1661973,0.0018530450486793177
1742986079.166685,0.0018366974794901385
1742986079.1671731,0.001833812614339107
1742986079.1676614,0.0018261196406030224
1742986079.1681492,0.0018136185582818855
1742986079.1686373,0.0018088104496968328
1742986079.1691253,0.0018136185582818855
1742986079.1696134,0.0017857315284885798
1742986079.1701012,0.0017857315284885798
1742986079.1705892,0.001793424502224664
1742986079.171077,0.0017866931502055902
1742986079.1715653,0.0017924628805076536
1742986079.1720533,0.0017732304461674428
1742986079.1725411,0.0017761153113184745
1742986079.1730294,0.0017790001764695059
1742986079.1735172,0.0017770769330354849
1742986079.1740053,0.0017866931502055902
1742986079.174493,0.0017751536896014636
1742986079.174981,0.0017780385547524955
1742986079.1754694,0.0017818850416205375
1742986079.1759572,0.001793424502224664
1742986079.1764452,0.001800155854243738
1742986079.1769333,0.0018049639628287906
1742986079.1774213,0.0018088104496968328
1742986079.1779091,0.0018184266668669381
1742986079.1783972,0.0018241963971690016
1742986079.1788852,0.0018241963971690016
1742986079.1793733,0.0018184266668669381
1742986079.1798613,0.0018145801799988959
1742986079.180349,0.0018011174759607485
1742986079.1808374,0.0017761153113184745
1742986079.1813252,0.001766499094148369
1742986079.1818132,0.0017751536896014636
1742986079.1823013,0.0017674607158653791
1742986079.182789,0.0017626526072803265
1742986079.1832774,0.001747266659808158
1742986079.1837652,0.0017376504426380526
1742986079.1842532,0.0017164947648638205
1742986079.1847413,0.0017078401694107256
1742986079.1852293,0.0017107250345617575
1742986079.1857173,0.001711686656278768
1742986079.1862051,0.001713609899712789
1742986079.1866932,0.0016934158436555675
1742986079.1871812,0.0016837996264854622
1742986079.1876693,0.0016809147613344305
1742986079.188157,0.001660720705277209
1742986079.1886454,0.0016578358401261775
1742986079.1891334,0.0016520661098241142
1742986079.1896212,0.0016655288138622618
1742986079.1901093,0.001660720705277209
1742986079.190597,0.0016636055704282407
1742986079.1910853,0.0016636055704282407
1742986079.1915731,0.0016636055704282407
1742986079.1920612,0.0016559125966921565
1742986079.1925495,0.0016511044881071036
1742986079.1930373,0.0016482196229560722
1742986079.1935253,0.001667452057296283
1742986079.194013,0.001669375300730304
1742986079.1945012,0.0016780298961833987
1742986079.1949892,0.00167995313961742
1742986079.1954772,0.001676106652749378
1742986079.1959653,0.0016703369224473144
1742986079.1964533,0.001673221787598346
1742986079.1969414,0.0016703369224473144
1742986079.1974292,0.0016616823269942195
1742986079.1979172,0.001673221787598346
1742986079.198405,0.0016741834093153567
1742986079.1988933,0.001676106652749378
1742986079.1993814,0.001676106652749378
1742986079.1998692,0.0016712985441643252
1742986079.2003574,0.0016664904355792722
1742986079.2008452,0.001660720705277209
1742986079.2013333,0.0016722601658813356
1742986079.201821,0.001681876383051441
1742986079.2023091,0.001681876383051441
1742986079.2027974,0.00167995313961742
1742986079.2032852,0.0016751450310323673
1742986079.2037733,0.001673221787598346
1742986079.2042613,0.0016828380047684518
1742986079.2047493,0.001690530978504536
1742986079.2052372,0.0016847612482024726
1742986079.2057252,0.0016780298961833987
1742986079.2062132,0.0016645671921452514
1742986079.2067013,0.0016539893532581352
1742986079.2071893,0.0016549509749751456
1742986079.2076771,0.0016616823269942195
1742986079.2081654,0.0016549509749751456
1742986079.2086532,0.0016549509749751456
1742986079.2091413,0.001643411514371019
1742986079.2096293,0.0016261023234648295
1742986079.210117,0.001612639619426682
1742986079.2106054,0.001614562862860703
1742986079.2110932,0.0016261023234648295
1742986079.2115812,0.0016357185406349348
1742986079.2120693,0.0016520661098241142
1742986079.2125573,0.0016520661098241142
1742986079.2130454,0.0016520661098241142
1742986079.2135332,0.0016530277315411248
1742986079.2140212,0.0016530277315411248
1742986079.2145092,0.0016597590835601987
1742986079.2149973,0.0016472580012390613
1742986079.215485,0.0016578358401261775
1742986079.2159734,0.0016636055704282407
1742986079.2164614,0.0016587974618431879
1742986079.2169492,0.0016491812446730826
1742986079.2174373,0.0016366801623519456
1742986079.217925,0.0016357185406349348
1742986079.2184134,0.0016309104320498822
1742986079.2189012,0.0016347569189179242
1742986079.2193892,0.0016357185406349348
1742986079.2198775,0.0016347569189179242
1742986079.2203653,0.0016193709714457556
1742986079.2208533,0.0016222558365967873
1742986079.2213411,0.0016232174583137979
1742986079.2218292,0.0016261023234648295
1742986079.2223172,0.0016155244845777134
1742986079.2228053,0.0016155244845777134
1742986079.223293,0.0016107163759926607
1742986079.2237813,0.001614562862860703
1742986079.2242694,0.00162706394518184
1742986079.2247572,0.0016289871886158611
1742986079.2252452,0.0016386034057859664
1742986079.225733,0.001650142866390093
1742986079.2262213,0.0016530277315411248
1742986079.2267094,0.0016626439487112301
1742986079.2271972,0.0016645671921452514
1742986079.2276855,0.001669375300730304
1742986079.2281733,0.0016578358401261775
1742986079.2286613,0.0016520661098241142
1742986079.229149,0.001650142866390093
1742986079.2296371,0.0016424498926540087
1742986079.2301254,0.0016261023234648295
1742986079.2306132,0.0016366801623519456
1742986079.2311013,0.0016491812446730826
1742986079.2315893,0.0016414882709369983
1742986079.2320774,0.0016511044881071036
1742986079.2325652,0.0016559125966921565
1742986079.2330532,0.0016712985441643252
1742986079.233541,0.0016482196229560722
1742986079.2340293,0.0016482196229560722
1742986079.2345173,0.0016491812446730826
1742986079.2350051,0.0016482196229560722
1742986079.2354934,0.0016395650275029768
1742986079.2359812,0.0016520661098241142
1742986079.2364693,0.0016511044881071036
1742986079.236957,0.0016539893532581352
1742986079.237445,0.0016472580012390613
1742986079.2379334,0.0016424498926540087
1742986079.2384212,0.0016395650275029768
1742986079.2389092,0.001637641784068956
1742986079.2393973,0.0016482196229560722
1742986079.2398853,0.0016539893532581352
1742986079.2403731,0.0016712985441643252
1742986079.2408612,0.001673221787598346
1742986079.2413492,0.0016751450310323673
1742986079.2418373,0.0016866844916364938
1742986079.2423253,0.0016934158436555675
1742986079.242813,0.0017078401694107256
1742986079.2433014,0.0017164947648638205
1742986079.2437892,0.0017270726037509367
1742986079.2442772,0.0017193796300148522
1742986079.2447653,0.0017145715214297995
1742986079.245253,0.0017213028734488732
1742986079.2457414,0.0017184180082978418
1742986079.2462292,0.001713609899712789
1742986079.2467172,0.0017001471956746414
1742986079.2472053,0.001703032060825673
1742986079.2476933,0.0016914926002215465
1742986079.2481813,0.0016837996264854622
1742986079.2486691,0.001681876383051441
1742986079.2491572,0.0016809147613344305
1742986079.2496452,0.0016866844916364938
1742986079.2501333,0.0016857228699194832
1742986079.250621,0.0016751450310323673
1742986079.2511094,0.0016684136790132934
1742986079.2515974,0.0016520661098241142
1742986079.2520852,0.001650142866390093
1742986079.2525733,0.0016280255668988505
1742986079.253061,0.0016136012411436926
1742986079.2535493,0.00159148394165245
1742986079.2540371,0.0015760979941802811
1742986079.2545252,0.0015991769153885342
1742986079.2550135,0.0015991769153885342
1742986079.2555013,0.0016030234022565764
1742986079.2559893,0.0016222558365967873
1742986079.256477,0.0016328336754839034
1742986079.2569652,0.0016299488103328715
1742986079.2574532,0.0016318720537668926
1742986079.2579412,0.0016357185406349348
1742986079.2584293,0.0016299488103328715
1742986079.2589173,0.0016289871886158611
1742986079.2594054,0.0016299488103328715
1742986079.2598932,0.0016222558365967873
1742986079.2603812,0.0016289871886158611
1742986079.260869,0.0016347569189179242
1742986079.2613573,0.0016289871886158611
1742986079.2618454,0.0016395650275029768
1742986079.2623332,0.0016472580012390613
1742986079.2628214,0.0016424498926540087
1742986079.2633092,0.001650142866390093
1742986079.2637973,0.0016491812446730826
1742986079.264285,0.0016520661098241142
1742986079.2647731,0.0016511044881071036
1742986079.2652614,0.001650142866390093
1742986079.2657492,0.0016655288138622618
1742986079.2662373,0.001667452057296283
1742986079.2667253,0.0016616823269942195
1742986079.2672133,0.0016530277315411248
1742986079.2677011,0.0016453347578050403
1742986079.2681892,0.0016578358401261775
1742986079.2686772,0.0016453347578050403
1742986079.2691653,0.0016578358401261775
1742986079.2696533,0.0016549509749751456
1742986079.2701411,0.0016530277315411248
1742986079.2706294,0.001669375300730304
1742986079.2711172,0.0016876461133535044
1742986079.2716053,0.0017001471956746414
1742986079.2720933,0.001699185573957631
1742986079.272581,0.0016934158436555675
1742986079.2730694,0.0016972623305236097
1742986079.2735572,0.0016914926002215465
1742986079.2740452,0.00167995313961742
1742986079.2745333,0.001690530978504536
1742986079.2750213,0.0016866844916364938
1742986079.2755094,0.0016684136790132934
1742986079.2759972,0.0016684136790132934
1742986079.2764852,0.001660720705277209
1742986079.2769732,0.0016645671921452514
1742986079.2774613,0.0016549509749751456
1742986079.277949,0.0016491812446730826
1742986079.2784374,0.0016587974618431879
1742986079.2789254,0.0016549509749751456
1742986079.2794132,0.0016703369224473144
1742986079.2799013,0.0016626439487112301
1742986079.280389,0.001667452057296283
1742986079.2808774,0.001673221787598346
1742986079.2813652,0.0016722601658813356
1742986079.2818532,0.0016789915179004095
1742986079.2823415,0.0016828380047684518
1742986079.2828293,0.0016712985441643252
1742986079.2833173,0.0016559125966921565
1742986079.2838051,0.0016703369224473144
1742986079.2842932,0.0016655288138622618
1742986079.2847812,0.001667452057296283
1742986079.2852693,0.0016664904355792722
1742986079.285757,0.001669375300730304
1742986079.2862453,0.0016664904355792722
1742986079.2867334,0.0016645671921452514
1742986079.2872212,0.0016616823269942195
1742986079.2877092,0.0016568742184091669
1742986079.288197,0.0016424498926540087
1742986079.2886853,0.001637641784068956
1742986079.2891734,0.00162706394518184
1742986079.2896612,0.0016299488103328715
1742986079.2901495,0.0016261023234648295
1742986079.2906373,0.0016184093497287452
1742986079.2911253,0.0016299488103328715
1742986079.291613,0.0016261023234648295
1742986079.2921011,0.0016107163759926607
1742986079.2925894,0.0016039850239735868
1742986079.2930772,0.0015972536719545134
1742986079.2935653,0.0016097547542756503
1742986079.2940533,0.0016039850239735868
1742986079.2945414,0.0016039850239735868
1742986079.2950292,0.0016011001588225554
1742986079.2955172,0.0015953304285204921
1742986079.296005,0.001602061780539566
1742986079.2964933,0.001614562862860703
1742986079.2969813,0.001614562862860703
1742986079.2974691,0.001614562862860703
1742986079.2979574,0.001607831510841629
1742986079.2984452,0.00160879313255864
1742986079.2989333,0.0016068698891246187
1742986079.299421,0.0016039850239735868
1742986079.299909,0.0016097547542756503
1742986079.3003974,0.0016232174583137979
1742986079.3008852,0.0016164861062947242
1742986079.3013732,0.0016097547542756503
1742986079.3018613,0.0016011001588225554
1742986079.3023493,0.0015885990765014183
1742986079.3028371,0.0015924455633694603
1742986079.3033252,0.0016011001588225554
1742986079.3038132,0.0016039850239735868
1742986079.3043013,0.0016184093497287452
1742986079.3047893,0.0016203325931627662
1742986079.305277,0.0016116779977096713
1742986079.3057654,0.00160879313255864
1742986079.3062532,0.0015972536719545134
1742986079.3067412,0.0016001385371055448
1742986079.3072293,0.0016068698891246187
1742986079.307717,0.001607831510841629
1742986079.3082054,0.0016049466456905977
1742986079.3086932,0.0016164861062947242
1742986079.3091812,0.0016097547542756503
1742986079.3096695,0.001614562862860703
1742986079.3101573,0.0016155244845777134
1742986079.3106453,0.0016184093497287452
1742986079.3111331,0.0016203325931627662
1742986079.3116212,0.0016184093497287452
1742986079.3121092,0.0016174477280117346
1742986079.3125973,0.0016212942148797769
1742986079.313085,0.0016232174583137979
1742986079.3135734,0.0016309104320498822
1742986079.3140614,0.0016424498926540087
1742986079.3145492,0.0016414882709369983
1742986079.3150373,0.001643411514371019
1742986079.315525,0.0016491812446730826
1742986079.3160133,0.0016520661098241142
1742986079.3165011,0.0016568742184091669
1742986079.3169892,0.0016578358401261775
1742986079.3174775,0.0016741834093153567
1742986079.3179653,0.0016741834093153567
1742986079.3184533,0.0016741834093153567
1742986079.318941,0.0016780298961833987
1742986079.3194292,0.0016751450310323673
1742986079.3199172,0.001673221787598346
1742986079.3204052,0.001667452057296283
1742986079.3208933,0.0016578358401261775
1742986079.3213813,0.0016424498926540087
1742986079.3218694,0.0016568742184091669
1742986079.3223572,0.001667452057296283
1742986079.3228452,0.0016751450310323673
1742986079.323333,0.0016953390870895887
1742986079.3238213,0.0017020704391086626
1742986079.3243093,0.0017001471956746414
1742986079.3247972,0.001703032060825673
1742986079.3252854,0.0017001471956746414
1742986079.3257732,0.0016895693567875252
1742986079.3262613,0.0016837996264854622
1742986079.326749,0.0016809147613344305
1742986079.3272371,0.0016828380047684518
1742986079.3277254,0.0017001471956746414
1742986079.3282132,0.0017020704391086626
1742986079.3287013,0.0016972623305236097
1742986079.3291893,0.0017232261168828944
1742986079.3296773,0.001734765577487021
1742986079.3301651,0.0017568828769782636
1742986079.3306532,0.0017799617981865167
1742986079.3311412,0.001793424502224664
1742986079.3316293,0.0018136185582818855
1742986079.3321173,0.0018145801799988959
1742986079.3326051,0.0018491985618112755
1742986079.3330934,0.0018616996441324129
1742986079.3335812,0.0018636228875664339
1742986079.3340693,0.0018742007264535498
1742986079.3345573,0.0018761239698875708
1742986079.335045,0.0018770855916045816
1742986079.3355334,0.0018626612658494233
1742986079.3360212,0.0018530450486793177
1742986079.3365092,0.0018453520749432334
1742986079.3369973,0.0018472753183772547
1742986079.3374853,0.0018472753183772547
1742986079.3379734,0.0018434288315092124
1742986079.3384612,0.001831889370905086
1742986079.3389492,0.0018472753183772547
1742986079.3394372,0.0018472753183772547
1742986079.3399253,0.0018472753183772547
1742986079.340413,0.0018415055880751912
1742986079.3409014,0.0018453520749432334
1742986079.3413894,0.0018520834269623073
1742986079.3418772,0.0018665077527174655
1742986079.3423653,0.0018626612658494233
1742986079.342853,0.0018540066703963286
1742986079.3433414,0.0018616996441324129
1742986079.3438292,0.0018636228875664339
1742986079.3443172,0.0018597764006983916
1742986079.3448055,0.001867469374434476
1742986079.3452933,0.0018770855916045816
1742986079.3457813,0.001879970456755613
1742986079.3462691,0.0018732391047365394
1742986079.3467572,0.0018703542395855078
1742986079.3472452,0.0018703542395855078
1742986079.3477333,0.0018713158613025182
1742986079.3482213,0.001883816943623655
1742986079.3487093,0.0018809320784726239
1742986079.3491974,0.00189247153907675
1742986079.3496852,0.0018722774830195286
1742986079.3501732,0.0018665077527174655
1742986079.350661,0.0018616996441324129
1742986079.3511493,0.0018684309961514865
1742986079.3516374,0.0018732391047365394
1742986079.3521252,0.0018693926178684971
1742986079.3526134,0.0018703542395855078
1742986079.3531013,0.0018665077527174655
1742986079.3535893,0.0018684309961514865
1742986079.354077,0.0018722774830195286
1742986079.3545651,0.0018684309961514865
1742986079.3550534,0.001883816943623655
1742986079.3555412,0.0018809320784726239
1742986079.3560293,0.0018828553219066447
1742986079.3565173,0.001879970456755613
1742986079.3570054,0.0018722774830195286
1742986079.3574932,0.0018742007264535498
1742986079.3579812,0.0018693926178684971
1742986079.358469,0.0018636228875664339
1742986079.3589573,0.0018684309961514865
1742986079.3594453,0.0018616996441324129
1742986079.3599331,0.0018588147789813812
1742986079.3604214,0.0018415055880751912
1742986079.3609092,0.0018415055880751912
1742986079.3613973,0.0018415055880751912
1742986079.361885,0.0018443904532262228
1742986079.362373,0.0018530450486793177
1742986079.3628614,0.0018443904532262228
1742986079.3633492,0.0018357358577731281
1742986079.3638372,0.001837659101207149
1742986079.3643253,0.0018280428840370436
1742986079.3648133,0.0018174650451499277
1742986079.3653011,0.0018165034234329171
1742986079.3657892,0.0018203499103009594
1742986079.3662772,0.0018241963971690016
1742986079.3667653,0.0018145801799988959
1742986079.3672533,0.0018184266668669381
1742986079.367741,0.0018213115320179698
1742986079.3682294,0.0018203499103009594
1742986079.3687172,0.0018088104496968328
1742986079.3692052,0.0018165034234329171
1742986079.3696933,0.001823234775451991
1742986079.370181,0.0018270812623200332
1742986079.3706694,0.0018165034234329171
1742986079.3711572,0.0018241963971690016
1742986079.3716452,0.0018213115320179698
1742986079.3721335,0.0018213115320179698
1742986079.3726213,0.0018145801799988959
1742986079.3731093,0.0018222731537349804
1742986079.3735971,0.0018165034234329171
1742986079.3740852,0.001823234775451991
1742986079.3745732,0.001819388288583949
1742986079.3750613,0.0018165034234329171
1742986079.375549,0.0018068872062628116
1742986079.3760374,0.0017953477456586853
1742986079.3765254,0.0017866931502055902
1742986079.3770132,0.0017799617981865167
1742986079.3775012,0.0017761153113184745
1742986079.377989,0.0017607293638463057
1742986079.3784773,0.0017655374724313583
1742986079.3789651,0.0017511131466762002
1742986079.3794532,0.0017443817946571263
1742986079.3799415,0.0017443817946571263
1742986079.3804293,0.001745343416374137
1742986079.3809173,0.0017443817946571263
1742986079.381405,0.0017568828769782636
1742986079.3818932,0.001770345581016411
1742986079.3823812,0.001770345581016411
1742986079.3828692,0.0017828466633375481
1742986079.3833573,0.0017982326108097167
1742986079.3838453,0.0018203499103009594
1742986079.3843334,0.00185689153554736
1742986079.3848212,0.0018828553219066447
1742986079.3853092,0.0018828553219066447
1742986079.385797,0.0018713158613025182
1742986079.3862853,0.001878047213321592
1742986079.3867733,0.0018751623481705604
1742986079.3872612,0.0018703542395855078
1742986079.3877494,0.0018540066703963286
1742986079.3882372,0.001837659101207149
1742986079.3887253,0.0018299661274710647
1742986079.389213,0.0018213115320179698
1742986079.3897011,0.0018280428840370436
1742986079.3901894,0.0018328509926220963
1742986079.3906772,0.0018347742360561175
1742986079.3911653,0.0018261196406030224
1742986079.3916533,0.001812656936564875
1742986079.3921413,0.0018097720714138432
1742986079.3926291,0.0017953477456586853
1742986079.3931172,0.0017790001764695059
1742986079.3936052,0.0017626526072803265
1742986079.3940933,0.0017491899032421791
1742986079.3945813,0.0017232261168828944
1742986079.3950691,0.0016963007088065991
1742986079.3955574,0.0016972623305236097
1742986079.3960452,0.0016837996264854622
1742986079.3965333,0.0016741834093153567
1742986079.3970213,0.0016770682744663883
1742986079.397509,0.0016559125966921565
1742986079.3979974,0.0016539893532581352
1742986079.3984852,0.001643411514371019
1742986079.3989732,0.0016472580012390613
1742986079.3994613,0.0016482196229560722
1742986079.3999493,0.00164437313608803
1742986079.4004374,0.0016424498926540087
1742986079.4009252,0.0016424498926540087
1742986079.4014132,0.001660720705277209
1742986079.4019012,0.001673221787598346
1742986079.4023893,0.0016982239522406203
1742986079.402877,0.001734765577487021
1742986079.4033654,0.001734765577487021
1742986079.4038534,0.0017376504426380526
1742986079.4043412,0.0017482282815251685
1742986079.4048293,0.0017424585512231053
1742986079.405317,0.001734765577487021
1742986079.4058053,0.001722264495165884
1742986079.4062932,0.0017289958471849575
1742986079.4067812,0.001728034225467947
1742986079.4072695,0.001726110982033926
1742986079.4077573,0.0017251493603169155
1742986079.4082453,0.001711686656278768
1742986079.4087331,0.0017078401694107256
1742986079.4092212,0.0017020704391086626
1742986079.4097092,0.0016953390870895887
1742986079.4101973,0.0016655288138622618
1742986079.4106853,0.0016636055704282407
1742986079.4111733,0.0016645671921452514
1742986079.4116614,0.0016664904355792722
1742986079.4121492,0.001676106652749378
1742986079.4126372,0.0016963007088065991
1742986079.413125,0.0016953390870895887
1742986079.4136133,0.0016712985441643252
1742986079.4141014,0.0016597590835601987
1742986079.4145892,0.0016549509749751456
1742986079.4150774,0.001660720705277209
1742986079.4155653,0.0016645671921452514
1742986079.4160533,0.0016472580012390613
1742986079.416541,0.0016539893532581352
1742986079.4170291,0.0016616823269942195
1742986079.4175174,0.0016857228699194832
1742986079.4180052,0.0016982239522406203
1742986079.4184933,0.001703032060825673
1742986079.4189813,0.0016914926002215465
1742986079.4194694,0.0016943774653725783
1742986079.4199572,0.0017251493603169155
1742986079.4204452,0.0017530363901102212
1742986079.420933,0.0017684223375823902
1742986079.4214213,0.0017905396370736324
1742986079.4219093,0.0018078488279798224
1742986079.4223971,0.0018165034234329171
1742986079.4228854,0.001831889370905086
1742986079.4233732,0.0018443904532262228
1742986079.4238613,0.0018040023411117802
1742986079.424349,0.0018040023411117802
1742986079.424837,0.001800155854243738
1742986079.4253254,0.001787654771922601
1742986079.4258132,0.001789578015356622
1742986079.4263012,0.001789578015356622
1742986079.4267893,0.0017857315284885798
1742986079.4272773,0.0017828466633375481
1742986079.4277651,0.0017838082850545587
1742986079.4282532,0.0017838082850545587
1742986079.4287412,0.0017847699067715694
1742986079.4292293,0.0017953477456586853
1742986079.4297173,0.0018030407193947693
1742986079.430205,0.0018040023411117802
1742986079.4306934,0.001789578015356622
1742986079.4311814,0.0017857315284885798
1742986079.4316692,0.0017799617981865167
1742986079.4321573,0.0017693839592994006
1742986079.432645,0.0017713072027334216
1742986079.4331334,0.0017828466633375481
1742986079.4336212,0.0017751536896014636
1742986079.4341092,0.0017866931502055902
1742986079.4345975,0.0017780385547524955
1742986079.4350853,0.0017761153113184745
1742986079.4355733,0.0017857315284885798
1742986079.4360611,0.0017818850416205375
1742986079.4365492,0.0018068872062628116
1742986079.4370372,0.0018068872062628116
1742986079.4375253,0.0018280428840370436
1742986079.438013,0.0018443904532262228
1742986079.4385014,0.001867469374434476
1742986079.4389894,0.0018722774830195286
1742986079.4394772,0.0018905482956427292
1742986079.4399652,0.0019001645128128345
1742986079.440453,0.0019078574865489188
1742986079.4409413,0.001915550460285003
1742986079.4414291,0.0019309364077571718
1742986079.4419172,0.0019472839769463512
1742986079.4424055,0.0019482455986633616
1742986079.4428933,0.0019540153289654247
1742986079.4433813,0.001957861815833467
1742986079.443869,0.0019569001941164565
1742986079.4443572,0.00196266992441852
1742986079.4448452,0.0019443991117953196
1742986079.4453332,0.0019443991117953196
1742986079.4458213,0.0019443991117953196
1742986079.4463093,0.001939591003210267
1742986079.4467974,0.0019415142466442878
1742986079.4472852,0.0019424758683612984
1742986079.4477732,0.0019482455986633616
1742986079.448261,0.0019376677597762457
1742986079.4487493,0.0019299747860401612
1742986079.4492373,0.0019367061380592351
1742986079.4497252,0.0019251666774551086
1742986079.4502134,0.0019088191082659294
1742986079.4507012,0.001915550460285003
1742986079.4511893,0.0019174737037190243
1742986079.451677,0.0018963180259447922
1742986079.4521651,0.0018905482956427292
1742986079.4526534,0.0018828553219066447
1742986079.4531412,0.001883816943623655
1742986079.4536293,0.0018761239698875708
1742986079.4541173,0.0018693926178684971
1742986079.4546053,0.0018732391047365394
1742986079.4550931,0.0018703542395855078
1742986079.4555812,0.0018703542395855078
1742986079.4560692,0.0018520834269623073
1742986079.4565573,0.0018434288315092124
1742986079.4570453,0.001842467209792202
1742986079.4575331,0.0018309277491880755
1742986079.4580214,0.0018309277491880755
1742986079.4585092,0.001825158018886012
1742986079.4589972,0.0018203499103009594
1742986079.4594853,0.0018203499103009594
1742986079.459973,0.001819388288583949
1742986079.4604614,0.0018155418017159067
1742986079.4609492,0.0018145801799988959
1742986079.4614372,0.0018116953148478645
1742986079.4619253,0.001800155854243738
1742986079.4624133,0.0018116953148478645
1742986079.4629014,0.0018222731537349804
1742986079.4633892,0.0018165034234329171
1742986079.4638772,0.0018136185582818855
1742986079.4643652,0.0018068872062628116
1742986079.4648533,0.001802079097677759
1742986079.465341,0.0018040023411117802
1742986079.4658294,0.001793424502224664
1742986079.4663174,0.0017905396370736324
1742986079.4668052,0.0017905396370736324
1742986079.4672933,0.0017905396370736324
1742986079.467781,0.0017857315284885798
1742986079.4682693,0.0017866931502055902
1742986079.4687572,0.0017828466633375481
1742986079.4692452,0.001787654771922601
1742986079.4697335,0.0017799617981865167
1742986079.4702213,0.0017790001764695059
1742986079.4707093,0.0017953477456586853
1742986079.4711971,0.0018059255845458012
1742986079.4716852,0.0018203499103009594
1742986079.4721732,0.0018107336931308538
1742986079.4726613,0.0018184266668669381
1742986079.4731493,0.0018309277491880755
1742986079.4736373,0.0018299661274710647
1742986079.4741254,0.0018174650451499277
1742986079.4746132,0.0018155418017159067
1742986079.4751012,0.0018107336931308538
1742986079.475589,0.0018078488279798224
1742986079.4760773,0.0017943861239416747
1742986079.4765654,0.0017847699067715694
1742986079.4770532,0.0017761153113184745
1742986079.4775414,0.001763614228997337
1742986079.4780293,0.0017491899032421791
1742986079.4785173,0.0017424585512231053
1742986079.479005,0.0017270726037509367
1742986079.4794931,0.0017251493603169155
1742986079.4799814,0.0017078401694107256
1742986079.4804692,0.0016943774653725783
1742986079.4809573,0.0016837996264854622
1742986079.4814453,0.0016664904355792722
1742986079.4819334,0.0016539893532581352
1742986079.4824212,0.0016472580012390613
1742986079.4829092,0.0016472580012390613
1742986079.483397,0.0016424498926540087
1742986079.4838853,0.0016328336754839034
1742986079.4843733,0.0016184093497287452
1742986079.4848611,0.0016222558365967873
1742986079.4853494,0.0016155244845777134
1742986079.4858372,0.0016203325931627662
1742986079.4863253,0.0016212942148797769
1742986079.486813,0.0016184093497287452
1742986079.487301,0.0016347569189179242
1742986079.4877894,0.0016299488103328715
1742986079.4882772,0.0016299488103328715
1742986079.4887652,0.0016386034057859664
1742986079.4892533,0.0016309104320498822
1742986079.4897413,0.0016337952972009138
1742986079.4902291,0.0016261023234648295
1742986079.4907172,0.0016155244845777134
1742986079.4912052,0.0016116779977096713
1742986079.4916933,0.0016107163759926607
1742986079.4921813,0.0016068698891246187
1742986079.492669,0.0016107163759926607
1742986079.4931574,0.0016116779977096713
1742986079.4936454,0.00160879313255864
1742986079.4941332,0.0016232174583137979
1742986079.4946213,0.0016155244845777134
1742986079.495109,0.0016116779977096713
1742986079.4955974,0.0016222558365967873
1742986079.4960852,0.0016232174583137979
1742986079.4965732,0.0016482196229560722
1742986079.4970615,0.0016741834093153567
1742986079.4975493,0.0016895693567875252
1742986079.4980373,0.0017020704391086626
1742986079.4985251,0.0017184180082978418
1742986079.4990132,0.0017241877385999048
1742986079.4995012,0.0017318807123359893
1742986079.4999893,0.0017289958471849575
1742986079.500477,0.0017164947648638205
1742986079.5009654,0.001713609899712789
1742986079.5014534,0.001713609899712789
1742986079.5019412,0.0017039936825426836
1742986079.5024292,0.0017107250345617575
1742986079.502917,0.0017068785476937152
1742986079.5034053,0.0017020704391086626
1742986079.5038931,0.0017068785476937152
1742986079.5043812,0.0017059169259767048
1742986079.5048695,0.0017039936825426836
1742986079.5053573,0.0017155331431468101
1742986079.5058453,0.0017193796300148522
1742986079.506333,0.0017357271992040314
1742986079.5068212,0.0017184180082978418
1742986079.5073092,0.0017126482779957783
1742986079.5077972,0.0016914926002215465
1742986079.5082853,0.0016616823269942195
1742986079.5087733,0.0016164861062947242
1742986079.5092614,0.0016164861062947242
1742986079.5097492,0.0016155244845777134
1742986079.5102372,0.0016136012411436926
1742986079.510725,0.00162706394518184
1742986079.5112133,0.0016203325931627662
1742986079.5117013,0.0016232174583137979
1742986079.5121891,0.0016309104320498822
1742986079.5126774,0.001643411514371019
1742986079.5131652,0.0016636055704282407
1742986079.5136533,0.0016597590835601987
1742986079.514141,0.0016712985441643252
1742986079.5146291,0.0016963007088065991
1742986079.5151174,0.0017184180082978418
1742986079.5156052,0.001736688820921042
1742986079.5160933,0.0017616909855633163
1742986079.5165813,0.0017741920678844532
1742986079.5170693,0.0017905396370736324
1742986079.5175571,0.0018107336931308538
1742986079.5180452,0.001812656936564875
1742986079.5185332,0.0018059255845458012
1742986079.5190213,0.0018011174759607485
1742986079.5195093,0.0017780385547524955
1742986079.5199971,0.0017588061204122844
1742986079.5204854,0.0017530363901102212
1742986079.5209732,0.001728034225467947
1742986079.5214612,0.0017097634128447469
1742986079.5219493,0.0017020704391086626
1742986079.522437,0.001690530978504536
1742986079.5229254,0.001690530978504536
1742986079.5234132,0.001692454221938557
1742986079.5239012,0.001692454221938557
1742986079.5243893,0.00167995313961742
1742986079.5248773,0.0016837996264854622
1742986079.5253654,0.0017011088173916518
1742986079.5258532,0.0017164947648638205
1742986079.5263412,0.0017309190906189787
1742986079.5268292,0.0017511131466762002
1742986079.5273173,0.0017674607158653791
1742986079.527805,0.0017828466633375481
1742986079.5282934,0.001796309367375696
1742986079.5287814,0.0017972709890927063
1742986079.5292692,0.0018116953148478645
1742986079.5297573,0.0018309277491880755
1742986079.530245,0.0018434288315092124
1742986079.5307333,0.0018684309961514865
1742986079.5312212,0.0018665077527174655
1742986079.5317092,0.001883816943623655
1742986079.5321975,0.0018847785653406657
1742986079.5326853,0.0019001645128128345
1742986079.5331733,0.0019068958648319082
1742986079.5336611,0.0019040109996808765
1742986079.5341492,0.0018992028910958239
1742986079.5346372,0.0019126655951339716
1742986079.5351253,0.0019242050557380982
1742986079.5356133,0.001939591003210267
1742986079.5361013,0.0019443991117953196
1742986079.5365894,0.001943437490078309
1742986079.5370772,0.0019386293814932561
1742986079.5375652,0.0019549769506824357
1742986079.538053,0.0019511304638143935
1742986079.5385413,0.0019309364077571718
1742986079.5390294,0.0019318980294741825
1742986079.5395172,0.0019184353254360347
1742986079.5400054,0.0019107423516999504
1742986079.5404932,0.0018992028910958239
1742986079.5409813,0.0019040109996808765
1742986079.541469,0.0018992028910958239
1742986079.5419571,0.0018992028910958239
1742986079.5424454,0.0018982412693788135
1742986079.5429332,0.0019040109996808765
1742986079.5434213,0.0019020877562468555
1742986079.5439093,0.0019030493779638661
1742986079.5443974,0.00190978072998294
1742986079.5448852,0.0019068958648319082
1742986079.5453732,0.0019068958648319082
1742986079.545861,0.0019078574865489188
1742986079.5463493,0.0018972796476618029
1742986079.5468373,0.0019001645128128345
1742986079.5473251,0.001901126134529845
1742986079.5478134,0.0019030493779638661
1742986079.5483012,0.0018953564042277818
1742986079.5487893,0.0018943947825107712
1742986079.549277,0.0018943947825107712
1742986079.549765,0.0019059342431148978
1742986079.5502534,0.0018895866739257186
1742986079.5507412,0.0018895866739257186
1742986079.5512292,0.0018895866739257186
1742986079.5517173,0.0018761239698875708
1742986079.5522053,0.0018597764006983916
1742986079.5526934,0.0018636228875664339
1742986079.5531812,0.0018530450486793177
1742986079.5536692,0.0018540066703963286
1742986079.5541573,0.001846313696660244
1742986079.5546453,0.0018472753183772547
1742986079.555133,0.0018328509926220963
1742986079.5556214,0.0018261196406030224
1742986079.5561094,0.0018261196406030224
1742986079.5565972,0.0018155418017159067
1742986079.5570853,0.0018078488279798224
1742986079.557573,0.0018030407193947693
1742986079.5580614,0.0018011174759607485
1742986079.5585492,0.0018097720714138432
1742986079.5590372,0.001812656936564875
1742986079.5595255,0.0018088104496968328
1742986079.5600133,0.0018136185582818855
1742986079.5605013,0.0018174650451499277
1742986079.5609891,0.0018145801799988959
1742986079.5614772,0.0018097720714138432
1742986079.5619652,0.0018059255845458012
1742986079.5624533,0.0017991942325267273
1742986079.562941,0.0017905396370736324
1742986079.5634294,0.0017847699067715694
1742986079.5639174,0.0017924628805076536
1742986079.5644052,0.001787654771922601
1742986079.5648932,0.001793424502224664
1742986079.565381,0.0017886163936396114
1742986079.5658693,0.001789578015356622
1742986079.5663571,0.0017838082850545587
1742986079.5668452,0.0017866931502055902
1742986079.5673335,0.0017713072027334216
1742986079.5678213,0.0017463050380911475
1742986079.5683093,0.001711686656278768
1742986079.568797,0.001660720705277209
1742986079.5692852,0.0016309104320498822
1742986079.5697732,0.0015991769153885342
1742986079.5702612,0.0015760979941802811
1742986079.5707493,0.0015539806946890387
1742986079.5712373,0.0015289785300467646
1742986079.5717254,0.0014847439310642797
1742986079.5722132,0.0014847439310642797
1742986079.5727012,0.0014847439310642797
1742986079.573189,0.0014732044704601531
1742986079.5736773,0.0014722428487431423
1742986079.5741653,0.0014962833916684062
1742986079.5746531,0.0015434028558019227
1742986079.5751414,0.0015991769153885342
1742986079.5756292,0.00164437313608803
1742986079.5761173,0.0017068785476937152
1742986079.576605,0.001764575850714348
1742986079.5770931,0.001796309367375696
1742986079.5775814,0.001787654771922601
1742986079.5780692,0.0017713072027334216
1742986079.5785573,0.001764575850714348
1742986079.5790453,0.001759767742129295
1742986079.5795333,0.0017530363901102212
1742986079.5800211,0.0017530363901102212
1742986079.5805092,0.0017463050380911475
1742986079.5809972,0.001726110982033926
1742986079.5814853,0.0017145715214297995
1742986079.5819733,0.0016886077350705148
1742986079.582461,0.0016963007088065991
1742986079.5829494,0.0017107250345617575
1742986079.5834372,0.0017068785476937152
1742986079.5839252,0.0017107250345617575
1742986079.5844133,0.001722264495165884
1742986079.584901,0.0017376504426380526
1742986079.5853894,0.0017203412517318628
1742986079.5858772,0.0017059169259767048
1742986079.5863652,0.0017107250345617575
1742986079.5868533,0.0017039936825426836
1742986079.5873413,0.0017078401694107256
1742986079.5878294,0.0017020704391086626
1742986079.5883172,0.0017020704391086626
1742986079.5888052,0.0017001471956746414
1742986079.5892932,0.0017068785476937152
1742986079.5897813,0.001711686656278768
1742986079.590269,0.0017088017911277363
1742986079.5907574,0.0017088017911277363
1742986079.5912454,0.0017107250345617575
1742986079.5917332,0.0017001471956746414
1742986079.5922213,0.001711686656278768
1742986079.592709,0.0017107250345617575
1742986079.5931973,0.0017059169259767048
1742986079.5936852,0.0017059169259767048
1742986079.5941732,0.0017059169259767048
1742986079.5946615,0.0017203412517318628
1742986079.5951493,0.001728034225467947
1742986079.5956373,0.0017338039557700106
1742986079.5961251,0.0017443817946571263
1742986079.5966132,0.001734765577487021
1742986079.5971012,0.0017443817946571263
1742986079.5975893,0.0017434201729401159
1742986079.5980773,0.0017338039557700106
1742986079.5985653,0.001711686656278768
1742986079.5990534,0.001711686656278768
1742986079.5995412,0.0017145715214297995
1742986079.6000292,0.0017097634128447469
1742986079.600517,0.0017107250345617575
1742986079.6010053,0.0017039936825426836
1742986079.6014934,0.0017001471956746414
1742986079.6019812,0.001704955304259694
1742986079.6024694,0.0017097634128447469
1742986079.6029572,0.0017107250345617575
1742986079.6034453,0.0017126482779957783
1742986079.603933,0.0017107250345617575
1742986079.6044211,0.0016972623305236097
1742986079.6049094,0.0016866844916364938
1742986079.6053972,0.0016780298961833987
1742986079.6058853,0.001673221787598346
1742986079.6063733,0.0016616823269942195
1742986079.6068614,0.0016636055704282407
1742986079.6073492,0.0016664904355792722
1742986079.6078372,0.0016587974618431879
1742986079.608325,0.0016626439487112301
1742986079.6088133,0.0016405266492199877
1742986079.6093013,0.0016337952972009138
1742986079.6097891,0.0016347569189179242
1742986079.6102774,0.0016289871886158611
1742986079.6107652,0.0016366801623519456
1742986079.6112533,0.0016309104320498822
1742986079.611741,0.0016491812446730826
1742986079.612229,0.0016491812446730826
1742986079.6127174,0.0016876461133535044
1742986079.6132052,0.001704955304259694
1742986079.6136932,0.001704955304259694
1742986079.6141813,0.0017213028734488732
1742986079.6146693,0.0016876461133535044
1742986079.6151574,0.0016876461133535044
1742986079.6156452,0.0016857228699194832
1742986079.6161332,0.0016636055704282407
1742986079.6166213,0.0016636055704282407
1742986079.6171093,0.0016712985441643252
1742986079.617597,0.0016914926002215465
1742986079.6180854,0.0017001471956746414
1742986079.6185734,0.0017068785476937152
1742986079.6190612,0.001717456386580831
1742986079.6195493,0.0017155331431468101
1742986079.620037,0.0017289958471849575
1742986079.6205254,0.001726110982033926
1742986079.6210132,0.001734765577487021
1742986079.6215012,0.0017376504426380526
1742986079.6219895,0.001747266659808158
1742986079.6224773,0.0017761153113184745
1742986079.6229653,0.0018155418017159067
1742986079.6234531,0.0018415055880751912
1742986079.6239412,0.0018742007264535498
1742986079.6244292,0.0018847785653406657
1742986079.6249173,0.0018943947825107712
1742986079.625405,0.0018982412693788135
1742986079.6258934,0.0019030493779638661
1742986079.6263814,0.0018953564042277818
1742986079.6268692,0.001883816943623655
1742986079.6273572,0.0018982412693788135
1742986079.627845,0.0019059342431148978
1742986079.6283333,0.0019145888385679927
1742986079.6288211,0.00190978072998294
1742986079.6293092,0.001913627216850982
1742986079.6297975,0.001920358568870056
1742986079.6302853,0.0019213201905870665
1742986079.6307733,0.001932859651191193
1742986079.631261,0.0019242050557380982
1742986079.6317492,0.0019357445163422247
1742986079.6322372,0.001932859651191193
1742986079.6327252,0.0019338212729082035
1742986079.6332133,0.001932859651191193
1742986079.6337013,0.0019299747860401612
1742986079.6341894,0.0019280515426061404
1742986079.6346772,0.0019242050557380982
1742986079.6351652,0.001920358568870056
1742986079.635653,0.0019338212729082035
1742986079.6361413,0.0019338212729082035
1742986079.6366293,0.0019415142466442878
1742986079.6371171,0.0019386293814932561
1742986079.6376054,0.001939591003210267
1742986079.6380932,0.0019415142466442878
1742986079.6385813,0.0019261282991721192
1742986079.639069,0.0019068958648319082
1742986079.6395571,0.0018982412693788135
1742986079.6400454,0.0018992028910958239
1742986079.6405332,0.0019049726213978874
1742986079.6410213,0.0019001645128128345
1742986079.6415093,0.0018963180259447922
1742986079.6419973,0.001886701808774687
1742986079.6424851,0.0018809320784726239
1742986079.6429732,0.0018809320784726239
1742986079.6434612,0.001886701808774687
1742986079.6439493,0.0018915099173597396
1742986079.6444373,0.0018992028910958239
1742986079.644925,0.0019078574865489188
1742986079.6454134,0.0019001645128128345
1742986079.6459012,0.0019117039734169608
1742986079.6463892,0.0019068958648319082
1742986079.6468773,0.001916512082002014
1742986079.647365,0.001932859651191193
1742986079.6478534,0.0019232434340210873
1742986079.6483412,0.001915550460285003
1742986079.6488292,0.001922281812304077
1742986079.6493173,0.001916512082002014
1742986079.6498053,0.00190978072998294
1742986079.6502934,0.0019068958648319082
1742986079.6507812,0.0019145888385679927
1742986079.6512692,0.0019126655951339716
1742986079.6517572,0.0019001645128128345
1742986079.6522453,0.001901126134529845
1742986079.652733,0.0018828553219066447
1742986079.6532214,0.0018857401870576765
1742986079.6537094,0.0018742007264535498
1742986079.6541972,0.0018703542395855078
1742986079.6546853,0.0018588147789813812
1742986079.655173,0.0018588147789813812
1742986079.6556613,0.001846313696660244
1742986079.6561491,0.0018261196406030224
1742986079.6566372,0.0018145801799988959
1742986079.6571255,0.0018145801799988959
1742986079.6576133,0.0018270812623200332
1742986079.6581013,0.0018116953148478645
1742986079.6585891,0.001796309367375696
1742986079.6590772,0.0017761153113184745
1742986079.6595652,0.0017713072027334216
1742986079.6600533,0.001770345581016411
1742986079.6605413,0.0017588061204122844
1742986079.6610293,0.0017568828769782636
1742986079.6615174,0.0017549596335442424
1742986079.6620052,0.0017424585512231053
1742986079.6624932,0.0017299574689019683
1742986079.662981,0.0017145715214297995
1742986079.6634693,0.001692454221938557
1742986079.6639574,0.001669375300730304
1742986079.6644452,0.0016414882709369983
1742986079.6649334,0.0016116779977096713
1742986079.6654212,0.0015895606982184289
1742986079.6659093,0.0015712898855952285
1742986079.666397,0.001582829346199355
1742986079.6668851,0.0015885990765014183
1742986079.6673734,0.0015866758330673972
1742986079.6678612,0.0015693666421612072
1742986079.6683493,0.001572251507312239
1742986079.6688373,0.001578982859331313
1742986079.6693254,0.0016097547542756503
1742986079.6698132,0.0016116779977096713
1742986079.6703012,0.0016405266492199877
1742986079.670789,0.0016828380047684518
1742986079.6712773,0.0017078401694107256
1742986079.6717653,0.001722264495165884
1742986079.6722531,0.0017463050380911475
1742986079.6727414,0.0017674607158653791
1742986079.6732292,0.0017828466633375481
1742986079.6737173,0.001766499094148369
1742986079.6742053,0.001745343416374137
1742986079.674693,0.0017184180082978418
1742986079.6751814,0.001690530978504536
1742986079.6756692,0.001676106652749378
1742986079.6761572,0.0016770682744663883
1742986079.6766453,0.0016953390870895887
1742986079.6771333,0.0017241877385999048
1742986079.6776214,0.0018040023411117802
1742986079.6781092,0.0018040023411117802
1742986079.6785972,0.001823234775451991
1742986079.6790853,0.0018540066703963286
1742986079.6795733,0.0018443904532262228
1742986079.680061,0.0018511218052452967
1742986079.6805494,0.0018530450486793177
1742986079.6810374,0.0018386207229241598
1742986079.6815252,0.0018357358577731281
1742986079.6820133,0.0018213115320179698
1742986079.682501,0.0017972709890927063
1742986079.6829894,0.0017722688244504322
1742986079.6834772,0.0017491899032421791
1742986079.6839652,0.0017318807123359893
1742986079.6844535,0.0017270726037509367
1742986079.6849413,0.001704955304259694
1742986079.6854293,0.0016953390870895887
1742986079.6859171,0.00167995313961742
1742986079.6864052,0.001667452057296283
1742986079.6868932,0.0016539893532581352
1742986079.6873813,0.0016684136790132934
1742986079.687869,0.001676106652749378
1742986079.6883574,0.0017088017911277363
1742986079.6888454,0.0017299574689019683
1742986079.6893332,0.0017539980118272318
1742986079.6898212,0.0017770769330354849
1742986079.690309,0.0017828466633375481
1742986079.6907973,0.0017828466633375481
1742986079.6912851,0.0017982326108097167
1742986079.6917732,0.001787654771922601
1742986079.6922615,0.001787654771922601
1742986079.6927493,0.0017915012587906432
1742986079.6932373,0.001789578015356622
1742986079.693725,0.001789578015356622
1742986079.6942132,0.0017866931502055902
1742986079.6947012,0.0017905396370736324
1742986079.6951892,0.0017790001764695059
1742986079.6956773,0.0017568828769782636
1742986079.6961653,0.0017463050380911475
1742986079.6966534,0.0017203412517318628
1742986079.6971412,0.0016886077350705148
1742986079.6976292,0.0016626439487112301
1742986079.698117,0.0016347569189179242
1742986079.6986053,0.0016203325931627662
1742986079.6990933,0.0016251407017478189
1742986079.6995811,0.0016251407017478189
1742986079.7000694,0.0016251407017478189
1742986079.7005572,0.0016289871886158611
1742986079.7010453,0.0016395650275029768
1742986079.701533,0.0016751450310323673
1742986079.7020211,0.0017011088173916518
1742986079.7025094,0.0017616909855633163
1742986079.7029972,0.0017972709890927063
1742986079.7034853,0.0018261196406030224
1742986079.7039733,0.0018366974794901385
1742986079.7044613,0.001812656936564875
1742986079.7049491,0.0017943861239416747
1742986079.7054372,0.0017847699067715694
1742986079.7059252,0.0017732304461674428
1742986079.7064133,0.0017684223375823902
1742986079.7069013,0.0017588061204122844
1742986079.707389,0.0017414969295060949
1742986079.7078774,0.001745343416374137
1742986079.7083652,0.001747266659808158
1742986079.7088532,0.0017443817946571263
1742986079.7093413,0.0017588061204122844
1742986079.709829,0.0017607293638463057
1742986079.7103174,0.001802079097677759
1742986079.7108052,0.001833812614339107
1742986079.7112932,0.0018636228875664339
1742986079.7117813,0.001883816943623655
1742986079.7122693,0.0019088191082659294
1742986079.7127573,0.0019251666774551086
1742986079.7132452,0.0019472839769463512
1742986079.7137332,0.0019443991117953196
1742986079.7142212,0.0019482455986633616
1742986079.7147093,0.001932859651191193
1742986079.715197,0.0019242050557380982
1742986079.7156854,0.0019117039734169608
1742986079.7161734,0.0019078574865489188
1742986079.7166612,0.001916512082002014
1742986079.7171493,0.0019270899208891296
1742986079.717637,0.001916512082002014
1742986079.7181253,0.00190978072998294
1742986079.7186131,0.0018992028910958239
1742986079.7191012,0.0018886250522087077
1742986079.7195895,0.0018828553219066447
1742986079.7200773,0.0018684309961514865
1742986079.7205653,0.0018684309961514865
1742986079.7210531,0.0018684309961514865
1742986079.7215412,0.0018684309961514865
1742986079.7220292,0.0018616996441324129
1742986079.7225173,0.0018520834269623073
1742986079.7230053,0.001848236940094265
1742986079.7234933,0.00185689153554736
1742986079.7239814,0.001860738022415402
1742986079.7244692,0.0018559299138303494
1742986079.7249572,0.0018366974794901385
1742986079.725445,0.001833812614339107
1742986079.7259333,0.0018309277491880755
1742986079.7264214,0.0018386207229241598
1742986079.7269092,0.0018415055880751912
1742986079.7273974,0.0018511218052452967
1742986079.7278852,0.0018578531572643706
1742986079.7283733,0.0018665077527174655
1742986079.728861,0.0018818937001896343
1742986079.7293491,0.00185689153554736
1742986079.7298374,0.0018645845092834443
1742986079.7303252,0.0018540066703963286
1742986079.7308133,0.0018453520749432334
1742986079.7313013,0.0018501601835282863
1742986079.7317894,0.001848236940094265
1742986079.7322772,0.001842467209792202
1742986079.7327652,0.0018453520749432334
1742986079.733253,0.0018405439663581808
1742986079.7337413,0.0018357358577731281
1742986079.7342293,0.0018405439663581808
1742986079.7347171,0.0018645845092834443
1742986079.7352054,0.001878047213321592
1742986079.7356932,0.0018886250522087077
1742986079.7361813,0.001878047213321592
1742986079.7366693,0.0018790088350386024
1742986079.737157,0.0018626612658494233
1742986079.7376454,0.0018434288315092124
1742986079.7381332,0.0018357358577731281
1742986079.7386212,0.0018241963971690016
1742986079.7391093,0.0018136185582818855
1742986079.7395973,0.0018030407193947693
1742986079.7400854,0.0017866931502055902
1742986079.7405732,0.0017722688244504322
1742986079.7410612,0.0017741920678844532
1742986079.7415493,0.0017751536896014636
1742986079.7420373,0.0017424585512231053
1742986079.742525,0.0017424585512231053
1742986079.7430134,0.001745343416374137
1742986079.7435014,0.0017511131466762002
1742986079.7439892,0.0017482282815251685
1742986079.7444773,0.0017674607158653791
1742986079.744965,0.0017770769330354849
1742986079.7454534,0.0017674607158653791
1742986079.7459412,0.0017539980118272318
1742986079.7464292,0.0017251493603169155
1742986079.7469175,0.001713609899712789
1742986079.7474053,0.0016943774653725783
1742986079.7478933,0.0017164947648638205
1742986079.7483811,0.0017270726037509367
1742986079.7488692,0.0017357271992040314
1742986079.7493572,0.0017309190906189787
1742986079.7498453,0.001736688820921042
1742986079.750333,0.0017424585512231053
1742986079.7508214,0.0017491899032421791
1742986079.7513094,0.0017434201729401159
1742986079.7517972,0.0017241877385999048
1742986079.7522852,0.0017078401694107256
1742986079.752773,0.0016943774653725783
1742986079.7532613,0.001692454221938557
1742986079.7537491,0.0016876461133535044
1742986079.7542372,0.0016876461133535044
1742986079.7547255,0.0016866844916364938
1742986079.7552133,0.001690530978504536
1742986079.7557013,0.001703032060825673
1742986079.756189,0.001704955304259694
1742986079.7566772,0.001734765577487021
1742986079.7571652,0.0017318807123359893
1742986079.7576532,0.0017463050380911475
1742986079.7581413,0.0017395736860720736
1742986079.7586293,0.0017520747683932106
1742986079.7591174,0.0017434201729401159
1742986079.7596052,0.0017520747683932106
1742986079.7600932,0.001780923419903527
1742986079.760581,0.0018116953148478645
1742986079.7610693,0.0018280428840370436
1742986079.7615573,0.0018116953148478645
1742986079.7620451,0.0017886163936396114
1742986079.7625334,0.0017520747683932106
1742986079.7630212,0.00167995313961742
1742986079.7635093,0.00167995313961742
1742986079.763997,0.0016530277315411248
1742986079.7644851,0.0016337952972009138
1742986079.7649734,0.001612639619426682
1742986079.7654612,0.0015972536719545134
1742986079.7659492,0.0015799444810483234
1742986079.7664373,0.0015684050204441968
1742986079.7669253,0.001553019072972028
1742986079.7674131,0.0015674433987271864
1742986079.7679012,0.0015866758330673972
1742986079.7683892,0.0016136012411436926
1742986079.7688773,0.0016405266492199877
1742986079.7693653,0.001673221787598346
1742986079.769853,0.001676106652749378
1742986079.7703414,0.0016847612482024726
1742986079.7708292,0.001669375300730304
1742986079.7713172,0.0016472580012390613
1742986079.7718053,0.0016222558365967873
1742986079.772293,0.0016184093497287452
1742986079.7727814,0.0016280255668988505
1742986079.7732692,0.0016251407017478189
1742986079.7737572,0.0016318720537668926
1742986079.7742453,0.0016366801623519456
1742986079.7747333,0.0016164861062947242
1742986079.7752213,0.0016155244845777134
1742986079.7757092,0.0016261023234648295
1742986079.7761972,0.0016366801623519456
1742986079.7766852,0.001637641784068956
1742986079.7771733,0.0016328336754839034
1742986079.777661,0.0016193709714457556
1742986079.7781494,0.0016001385371055448
1742986079.7786374,0.0016011001588225554
1742986079.7791252,0.0015982152936715238
1742986079.7796133,0.001607831510841629
1742986079.780101,0.0016289871886158611
1742986079.7805893,0.0016626439487112301
1742986079.7810771,0.0017078401694107256
1742986079.7815652,0.001734765577487021
1742986079.7820535,0.0017511131466762002
1742986079.7825413,0.0017684223375823902
1742986079.7830293,0.0017991942325267273
1742986079.7835171,0.0018040023411117802
1742986079.7840052,0.0017741920678844532
1742986079.7844932,0.0017741920678844532
1742986079.7849813,0.0017684223375823902
1742986079.7854693,0.0017491899032421791
1742986079.7859573,0.0017289958471849575
1742986079.7864454,0.0016857228699194832
1742986079.7869332,0.001669375300730304
1742986079.7874212,0.0016405266492199877
1742986079.787909,0.0015924455633694603
1742986079.7883973,0.0015501342078209964
1742986079.7888854,0.0015020531219704695
1742986079.7893732,0.001504937987121501
1742986079.7898614,0.0014982066351024272
1742986079.7903492,0.0014953217699513954
1742986079.7908373,0.0014789742007622162
1742986079.791325,0.0014607033881390158
1742986079.7918131,0.001488590417932322
1742986079.7923014,0.0015203239345936697
1742986079.7927892,0.0015857142113503868
1742986079.7932773,0.001669375300730304
1742986079.7937653,0.0017549596335442424
1742986079.7942533,0.001825158018886012
1742986079.7947412,0.0018953564042277818
1742986079.7952292,0.0019309364077571718
1742986079.795717,0.0019742093850226464
1742986079.7962053,0.0019905569542118255
1742986079.7966933,0.001985748845626773
1742986079.7971811,0.0019636315461355304
1742986079.7976694,0.001957861815833467
1742986079.7981572,0.0019261282991721192
1742986079.7986453,0.0018790088350386024
1742986079.7991333,0.0018559299138303494
1742986079.799621,0.0018386207229241598
1742986079.8001094,0.0018357358577731281
1742986079.8005972,0.0018145801799988959
1742986079.8010852,0.001796309367375696
1742986079.8015733,0.0017761153113184745
1742986079.8020613,0.0017751536896014636
1742986079.8025494,0.0017761153113184745
1742986079.8030372,0.0017866931502055902
1742986079.8035252,0.0018040023411117802
1742986079.8040133,0.0018203499103009594
1742986079.8045013,0.0018491985618112755
1742986079.804989,0.0018732391047365394
1742986079.8054774,0.0018732391047365394
1742986079.8059654,0.0018732391047365394
1742986079.8064532,0.0018847785653406657
1742986079.8069413,0.0018857401870576765
1742986079.807429,0.0018693926178684971
1742986079.8079174,0.0018626612658494233
1742986079.8084052,0.0018732391047365394
1742986079.8088932,0.0018953564042277818
1742986079.8093815,0.0018972796476618029
1742986079.8098693,0.0019020877562468555
1742986079.8103573,0.0018963180259447922
1742986079.8108451,0.00189247153907675
1742986079.8113332,0.0018886250522087077
1742986079.8118212,0.0018703542395855078
1742986079.8123093,0.001854968292113339
1742986079.812797,0.001848236940094265
1742986079.8132854,0.0018472753183772547
1742986079.8137734,0.0018511218052452967
1742986079.8142612,0.0018415055880751912
1742986079.8147492,0.0018280428840370436
1742986079.815237,0.0018222731537349804
1742986079.8157253,0.001812656936564875
1742986079.8162131,0.001812656936564875
1742986079.8167012,0.0018030407193947693
1742986079.8171895,0.0018116953148478645
1742986079.8176773,0.0018030407193947693
1742986079.8181653,0.0017991942325267273
1742986079.818653,0.0017972709890927063
1742986079.8191411,0.001796309367375696
1742986079.8196294,0.0018040023411117802
1742986079.8201172,0.001812656936564875
1742986079.8206053,0.0018107336931308538
1742986079.8210933,0.0018068872062628116
1742986079.8215814,0.0018203499103009594
1742986079.8220692,0.0018088104496968328
1742986079.8225572,0.0018049639628287906
1742986079.823045,0.001802079097677759
1742986079.8235333,0.0018068872062628116
1742986079.8240213,0.0018040023411117802
1742986079.8245091,0.0018136185582818855
1742986079.8249974,0.0018040023411117802
1742986079.8254852,0.0018030407193947693
1742986079.8259733,0.0017915012587906432
1742986079.826461,0.001745343416374137
1742986079.8269491,0.001745343416374137
1742986079.8274374,0.001745343416374137
1742986079.8279252,0.0017434201729401159
1742986079.8284132,0.0017376504426380526
1742986079.8289013,0.001736688820921042
1742986079.8293893,0.001736688820921042
1742986079.8298771,0.001726110982033926
1742986079.8303652,0.0017251493603169155
1742986079.8308532,0.0017097634128447469
1742986079.8313413,0.0016972623305236097
1742986079.8318293,0.0016741834093153567
1742986079.832317,0.0016741834093153567
1742986079.8328054,0.0016664904355792722
1742986079.8332932,0.0016636055704282407
1742986079.8337812,0.0016703369224473144
1742986079.8342693,0.0016809147613344305
1742986079.834757,0.0016972623305236097
1742986079.8352454,0.001726110982033926
1742986079.8357332,0.0017338039557700106
1742986079.8362212,0.0017491899032421791
1742986079.8367093,0.001770345581016411
1742986079.8371973,0.0017626526072803265
1742986079.8376853,0.0017607293638463057
1742986079.8381732,0.0017559212552612528
1742986079.8386612,0.0017568828769782636
1742986079.8391492,0.0017684223375823902
1742986079.8396373,0.001759767742129295
1742986079.840125,0.001759767742129295
1742986079.8406134,0.0017559212552612528
1742986079.8411014,0.0017501515249591898
1742986079.8415892,0.001747266659808158
1742986079.8420773,0.001747266659808158
1742986079.842565,0.001740535307789084
1742986079.8430533,0.0017357271992040314
1742986079.8435411,0.0017241877385999048
1742986079.8440292,0.001711686656278768
1742986079.8445175,0.0016895693567875252
1742986079.8450053,0.0016712985441643252
1742986079.8454933,0.0016539893532581352
1742986079.8459811,0.0016347569189179242
1742986079.8464692,0.0016097547542756503
1742986079.8469572,0.0015712898855952285
1742986079.8474452,0.001549172586103986
1742986079.8479333,0.001481859065913248
1742986079.8484213,0.001481859065913248
1742986079.8489094,0.0014770509573281954
1742986079.8493972,0.0014549336578369527
1742986079.8498852,0.0014568569012709737
1742986079.850373,0.001452048792685921
1742986079.8508613,0.0014453174406668474
1742986079.8513494,0.0014607033881390158
1742986079.8518372,0.0014760893356111845
1742986079.8523254,0.0015164774477256276
1742986079.8528132,0.0015818677244823446
1742986079.8533013,0.0016482196229560722
1742986079.853789,0.0016886077350705148
1742986079.8542771,0.0017107250345617575
1742986079.8547654,0.001704955304259694
1742986079.8552532,0.0017145715214297995
1742986079.8557413,0.0017193796300148522
1742986079.8562293,0.0017145715214297995
1742986079.8567173,0.0017376504426380526
1742986079.8572052,0.001747266659808158
1742986079.8576932,0.0017318807123359893
1742986079.8581812,0.001728034225467947
1742986079.8586693,0.0017193796300148522
1742986079.8591573,0.0017059169259767048
1742986079.8596451,0.0017289958471849575
1742986079.8601334,0.0017443817946571263
1742986079.8606212,0.0017357271992040314
1742986079.8611093,0.001717456386580831
1742986079.8615973,0.0017251493603169155
1742986079.862085,0.0017309190906189787
1742986079.8625734,0.001740535307789084
1742986079.8630612,0.0017424585512231053
1742986079.8635492,0.0017241877385999048
1742986079.8640373,0.001690530978504536
1742986079.8645253,0.001667452057296283
1742986079.8650134,0.001669375300730304
1742986079.8655012,0.0016530277315411248
1742986079.8659892,0.0016366801623519456
1742986079.8664773,0.001612639619426682
1742986079.8669653,0.0015953304285204921
1742986079.867453,0.0015818677244823446
1742986079.8679414,0.0015770596158972917
1742986079.8684294,0.001559750424991102
1742986079.8689172,0.001561673668425123
1742986079.8694053,0.001561673668425123
1742986079.869893,0.0015712898855952285
1742986079.8703814,0.0016030234022565764
1742986079.8708692,0.001605908267407608
1742986079.8713572,0.001612639619426682
1742986079.8718455,0.0016309104320498822
1742986079.8723333,0.001646296379522051
1742986079.8728213,0.0016482196229560722
1742986079.8733091,0.0016684136790132934
1742986079.8737972,0.0016703369224473144
1742986079.8742852,0.0016616823269942195
1742986079.8747733,0.001667452057296283
1742986079.875261,0.0016857228699194832
1742986079.8757493,0.0016934158436555675
1742986079.8762374,0.00167995313961742
1742986079.8767252,0.001637641784068956
1742986079.8772132,0.0015982152936715238
1742986079.877701,0.0015520574512550176
1742986079.8781893,0.00155590393812306
1742986079.8786771,0.0015674433987271864
1742986079.8791652,0.0015684050204441968
1742986079.8796535,0.0015732131290292495
1742986079.8801413,0.0015741747507462603
1742986079.8806293,0.001607831510841629
1742986079.881117,0.001637641784068956
1742986079.8816051,0.0016828380047684518
1742986079.8820934,0.0017251493603169155
1742986079.8825812,0.0017511131466762002
1742986079.8830693,0.0017626526072803265
1742986079.8835573,0.0017741920678844532
1742986079.8840454,0.0017722688244504322
1742986079.8845332,0.0017424585512231053
1742986079.8850212,0.0017097634128447469
1742986079.885509,0.00167995313961742
1742986079.8859973,0.0016578358401261775
1742986079.8864853,0.0016386034057859664
1742986079.8869731,0.0016251407017478189
1742986079.8874614,0.0016261023234648295
1742986079.8879492,0.0016424498926540087
1742986079.8884373,0.0016712985441643252
1742986079.888925,0.0016780298961833987
1742986079.889413,0.0016866844916364938
1742986079.8899014,0.001690530978504536
1742986079.8903892,0.001690530978504536
1742986079.8908772,0.001717456386580831
1742986079.8913653,0.0017520747683932106
1742986079.8918533,0.0017905396370736324
1742986079.8923411,0.0018011174759607485
1742986079.8928292,0.0018030407193947693
1742986079.8933172,0.0017684223375823902
1742986079.8938053,0.0017626526072803265
1742986079.8942933,0.001745343416374137
1742986079.894781,0.0017539980118272318
1742986079.8952694,0.0017588061204122844
1742986079.8957572,0.0017828466633375481
1742986079.8962452,0.0017857315284885798
1742986079.8967333,0.0017857315284885798
1742986079.897221,0.0017866931502055902
1742986079.8977094,0.0017905396370736324
1742986079.8981972,0.0017915012587906432
1742986079.8986852,0.0018145801799988959
1742986079.8991733,0.001831889370905086
1742986079.8996613,0.0018520834269623073
1742986079.9001493,0.0018963180259447922
1742986079.9006371,0.0019443991117953196
1742986079.9011252,0.001979017493607699
1742986079.9016132,0.0020030580365329627
1742986079.9021013,0.0020270985794582264
1742986079.902589,0.002039599661779363
1742986079.9030774,0.002019405605722142
1742986079.9035654,0.001985748845626773
1742986079.9040532,0.0019819023587587304
1742986079.9045413,0.0019492072203803723
1742986079.905029,0.0019290131643231508
1742986079.9055173,0.0019126655951339716
1742986079.9060051,0.0018934331607937608
1742986079.9064932,0.0018876634304916973
1742986079.9069815,0.0018761239698875708
1742986079.9074693,0.0018588147789813812
1742986079.9079573,0.0018693926178684971
1742986079.9084451,0.0018626612658494233
1742986079.9089332,0.001842467209792202
1742986079.9094212,0.0018366974794901385
1742986079.9099092,0.001823234775451991
1742986079.9103973,0.0018155418017159067
1742986079.9108853,0.0018068872062628116
1742986079.9113734,0.0018068872062628116
1742986079.9118612,0.0018136185582818855
1742986079.9123492,0.0017991942325267273
1742986079.912837,0.0018040023411117802
1742986079.9133253,0.0017943861239416747
1742986079.9138134,0.0017886163936396114
1742986079.9143012,0.0017857315284885798
1742986079.9147894,0.0017790001764695059
1742986079.9152772,0.0017790001764695059
1742986079.9157653,0.0017732304461674428
1742986079.916253,0.001780923419903527
1742986079.9167411,0.0017732304461674428
1742986079.9172294,0.0017790001764695059
1742986079.9177172,0.0017799617981865167
1742986079.9182053,0.0017588061204122844
1742986079.9186933,0.0017463050380911475
1742986079.9191813,0.0017568828769782636
1742986079.9196692,0.0017655374724313583
1742986079.9201572,0.0017482282815251685
1742986079.9206452,0.0017386120643550632
1742986079.9211333,0.0017107250345617575
1742986079.9216213,0.001703032060825673
1742986079.9221091,0.0016866844916364938
1742986079.9225974,0.001673221787598346
1742986079.9230852,0.001667452057296283
1742986079.9235733,0.0016626439487112301
1742986079.9240613,0.0016684136790132934
1742986079.924549,0.0016559125966921565
1742986079.9250374,0.0016568742184091669
1742986079.9255252,0.0016491812446730826
1742986079.9260132,0.0016520661098241142
1742986079.9265013,0.0016559125966921565
1742986079.9269893,0.0016636055704282407
1742986079.9274774,0.0016549509749751456
1742986079.9279652,0.0016549509749751456
1742986079.9284532,0.0016511044881071036
1742986079.9289412,0.0016559125966921565
1742986079.9294293,0.0016511044881071036
1742986079.929917,0.0016395650275029768
1742986079.9304054,0.0016337952972009138
1742986079.9308934,0.0016309104320498822
1742986079.9313812,0.0016174477280117346
1742986079.9318693,0.001614562862860703
1742986079.932357,0.001614562862860703
1742986079.9328454,0.001614562862860703
1742986079.9333332,0.0016116779977096713
1742986079.9338212,0.0016030234022565764
1742986079.9343095,0.0015982152936715238
1742986079.9347973,0.0015972536719545134
1742986079.9352853,0.0015905223199354395
1742986079.9357731,0.0015982152936715238
1742986079.9362612,0.0015953304285204921
1742986079.9367492,0.0015876374547844076
1742986079.9372373,0.0015578271815570807
1742986079.937725,0.0015434028558019227
1742986079.9382133,0.001559750424991102
1742986079.9387014,0.0015578271815570807
1742986079.9391892,0.0015655201552931652
1742986079.9396772,0.0015693666421612072
1742986079.940165,0.0015991769153885342
1742986079.9406533,0.0015924455633694603
1742986079.9411414,0.0015866758330673972
1742986079.9416292,0.0015991769153885342
1742986079.9421175,0.0016395650275029768
1742986079.9426053,0.0016626439487112301
1742986079.9430933,0.0017001471956746414
1742986079.943581,0.001726110982033926
1742986079.9440691,0.0017039936825426836
1742986079.9445574,0.0016597590835601987
1742986079.9450452,0.0016184093497287452
1742986079.9455333,0.0015857142113503868
1742986079.9460213,0.0015674433987271864
1742986079.9465094,0.0015674433987271864
1742986079.9469972,0.001584752589633376
1742986079.9474852,0.0016116779977096713
1742986079.947973,0.0016347569189179242
1742986079.9484613,0.0016395650275029768
1742986079.9489493,0.0016664904355792722
1742986079.9494371,0.0016943774653725783
1742986079.9499254,0.0017289958471849575
1742986079.9504132,0.0017838082850545587
1742986079.9509013,0.0018145801799988959
1742986079.951389,0.0018203499103009594
1742986079.951877,0.0018184266668669381
1742986079.9523654,0.001819388288583949
1742986079.9528532,0.001833812614339107
1742986079.9533412,0.0018049639628287906
1742986079.9538293,0.0018049639628287906
1742986079.9543173,0.0018049639628287906
1742986079.9548051,0.0017713072027334216
1742986079.9552932,0.001745343416374137
1742986079.9557812,0.001736688820921042
1742986079.9562693,0.0017164947648638205
1742986079.9567573,0.001690530978504536
1742986079.957245,0.0016789915179004095
1742986079.9577334,0.0016587974618431879
1742986079.9582212,0.001650142866390093
1742986079.9587092,0.0016280255668988505
1742986079.9591973,0.0016011001588225554
1742986079.959685,0.0015982152936715238
1742986079.9601734,0.001578982859331313
1742986079.9606612,0.0015655201552931652
1742986079.9611492,0.0015482109643869754
1742986079.9616373,0.0015414796123679015
1742986079.9621253,0.0015376331254998595
1742986079.9626133,0.0015251320431787223
1742986079.9631011,0.0015058996088385115
1742986079.9635892,0.0014924369048003642
1742986079.9640772,0.0014847439310642797
1742986079.9645653,0.0014732044704601531
1742986079.965053,0.0014914752830833533
1742986079.9655414,0.001534748260348828
1742986079.9660294,0.00159148394165245
1742986079.9665172,0.00162706394518184
1742986079.9670053,0.0016712985441643252
1742986079.967493,0.0017011088173916518
1742986079.9679813,0.0017328423340529997
1742986079.9684691,0.0017482282815251685
1742986079.9689572,0.001763614228997337
1742986079.9694455,0.0017847699067715694
1742986079.9699333,0.0018049639628287906
1742986079.9704213,0.0018049639628287906
1742986079.970909,0.0018145801799988959
1742986079.9713972,0.001812656936564875
1742986079.9718852,0.0018155418017159067
1742986079.9723732,0.001802079097677759
1742986079.9728613,0.0017828466633375481
1742986079.9733493,0.0017818850416205375
1742986079.9738374,0.0017770769330354849
1742986079.9743252,0.0017905396370736324
1742986079.9748132,0.0018290045057540543
1742986079.975301,0.0018290045057540543
1742986079.9757893,0.0018290045057540543
1742986079.9762774,0.0018290045057540543
1742986079.9767652,0.0018386207229241598
1742986079.9772534,0.0018347742360561175
1742986079.9777412,0.0018347742360561175
1742986079.9782293,0.001833812614339107
1742986079.978717,0.0018280428840370436
1742986079.9792051,0.001833812614339107
1742986079.9796934,0.001825158018886012
1742986079.9801812,0.0018213115320179698
1742986079.9806693,0.0018203499103009594
1742986079.9811573,0.0018078488279798224
1742986079.9816453,0.0018040023411117802
1742986079.9821332,0.0018088104496968328
1742986079.9826212,0.001812656936564875
1742986079.9831092,0.001796309367375696
1742986079.9835973,0.0017761153113184745
1742986079.9840853,0.0017626526072803265
1742986079.9845731,0.0017395736860720736
1742986079.9850614,0.0017299574689019683
1742986079.9855492,0.0017184180082978418
1742986079.9860373,0.0016943774653725783
1742986079.9865253,0.0016684136790132934
1742986079.987013,0.0016405266492199877
1742986079.9875014,0.0016184093497287452
1742986079.9879892,0.0015943688068034815
1742986079.9884772,0.0015857142113503868
1742986079.9889653,0.001572251507312239
1742986079.9894533,0.0015674433987271864
1742986079.9899414,0.0015587888032740915
1742986079.9904292,0.0015587888032740915
1742986079.9909172,0.0015645585335761546
1742986079.9914052,0.0015568655598400703
1742986079.9918933,0.0015549423164060493
1742986079.992381,0.0015549423164060493
1742986079.9928694,0.0015741747507462603
1742986079.9933574,0.0015760979941802811
1742986079.9938452,0.0015943688068034815
1742986079.9943333,0.0015943688068034815
1742986079.994821,0.001605908267407608
1742986079.9953094,0.0016030234022565764
1742986079.9957972,0.0016347569189179242
1742986079.9962852,0.0016347569189179242
1742986079.9967735,0.00164437313608803
1742986079.9972613,0.0016318720537668926
1742986079.9977493,0.0016414882709369983
1742986079.9982371,0.0016530277315411248
1742986079.9987252,0.0016664904355792722
1742986079.9992132,0.0016914926002215465
1742986079.9997013,0.001704955304259694
1742986080.000189,0.0017164947648638205
1742986080.0006773,0.001711686656278768
1742986080.0011654,0.001692454221938557
1742986080.0016532,0.0016780298961833987
1742986080.0021412,0.001669375300730304
1742986080.002629,0.0016751450310323673
1742986080.0031173,0.0017184180082978418
1742986080.0036054,0.0017318807123359893
1742986080.0040932,0.001728034225467947
1742986080.0045815,0.0017203412517318628
1742986080.0050693,0.0017088017911277363
1742986080.0055573,0.0016943774653725783
1742986080.006045,0.0016789915179004095
1742986080.0065331,0.00167995313961742
1742986080.0070214,0.001699185573957631
1742986080.0075092,0.001711686656278768
1742986080.0079973,0.0016953390870895887
1742986080.0084853,0.0016655288138622618
1742986080.0089734,0.0016482196229560722
1742986080.0094612,0.0016347569189179242
1742986080.0099492,0.0016222558365967873
1742986080.010437,0.0016203325931627662
1742986080.0109253,0.0016155244845777134
1742986080.0114133,0.0016049466456905977
1742986080.0119011,0.0015809061027653338
1742986080.0123894,0.0015587888032740915
1742986080.0128772,0.0015424412340849121
1742986080.0133653,0.0015482109643869754
1742986080.013853,0.0015395563689338807
1742986080.014341,0.0015462877209529542
1742986080.0148294,0.0015539806946890387
1742986080.0153172,0.00159148394165245
1742986080.0158052,0.001607831510841629
1742986080.0162933,0.0016289871886158611
1742986080.0167813,0.0016703369224473144
1742986080.0172691,0.0016703369224473144
1742986080.0177572,0.0016645671921452514
1742986080.0182452,0.0016789915179004095
1742986080.0187333,0.0016809147613344305
1742986080.0192213,0.0016972623305236097
1742986080.019709,0.0017270726037509367
1742986080.0201974,0.0017443817946571263
1742986080.0206852,0.0017520747683932106
1742986080.0211732,0.0017568828769782636
1742986080.0216613,0.0017578444986952738
1742986080.022149,0.0017559212552612528
1742986080.0226374,0.0017847699067715694
1742986080.0231252,0.001819388288583949
1742986080.0236132,0.0018616996441324129
1742986080.0241013,0.0019020877562468555
1742986080.0245893,0.0019367061380592351
1742986080.0250773,0.0019867104673437835
1742986080.0255651,0.001996326684513889
1742986080.0260532,0.0019799791153247096
1742986080.0265412,0.001975171006739657
1742986080.0270293,0.0019540153289654247
1742986080.027517,0.0019347828946252139
1742986080.0280054,0.0019309364077571718
1742986080.0284934,0.0019338212729082035
1742986080.0289812,0.0019107423516999504
1742986080.0294693,0.0018895866739257186
1742986080.029957,0.0018770855916045816
1742986080.0304453,0.001865546131000455
1742986080.0309331,0.0018597764006983916
1742986080.0314212,0.0018530450486793177
1742986080.0319095,0.0018511218052452967
1742986080.0323973,0.0018491985618112755
1742986080.0328853,0.001837659101207149
1742986080.033373,0.001831889370905086
1742986080.0338612,0.001823234775451991
1742986080.0343492,0.0018107336931308538
1742986080.0348372,0.0017982326108097167
1742986080.0353253,0.001793424502224664
1742986080.0358133,0.001780923419903527
1742986080.0363014,0.0017684223375823902
1742986080.0367892,0.0017626526072803265
1742986080.0372772,0.0017568828769782636
1742986080.037765,0.0017443817946571263
1742986080.0382533,0.0017443817946571263
1742986080.0387414,0.001740535307789084
1742986080.0392292,0.001745343416374137
1742986080.0397174,0.0017501515249591898
1742986080.0402052,0.0017520747683932106
1742986080.0406933,0.001766499094148369
1742986080.041181,0.0017482282815251685
1742986080.0416691,0.0017616909855633163
1742986080.0421574,0.001759767742129295
1742986080.0426452,0.0017501515249591898
1742986080.0431333,0.0017434201729401159
1742986080.0436213,0.0017501515249591898
1742986080.0441093,0.0017443817946571263
1742986080.0445971,0.0017386120643550632
1742986080.0450852,0.001734765577487021
1742986080.0455732,0.0017318807123359893
1742986080.0460613,0.0017299574689019683
1742986080.0465493,0.001728034225467947
1742986080.0470371,0.0017289958471849575
1742986080.0475254,0.0017424585512231053
1742986080.0480132,0.0017434201729401159
1742986080.0485013,0.0017241877385999048
1742986080.0489893,0.0017059169259767048
1742986080.049477,0.0017078401694107256
1742986080.0499654,0.0017059169259767048
1742986080.0504532,0.0017011088173916518
1742986080.0509412,0.0016972623305236097
1742986080.0514293,0.0016789915179004095
1742986080.0519173,0.0016712985441643252
1742986080.0524054,0.001669375300730304
1742986080.0528932,0.0016722601658813356
1742986080.0533812,0.001673221787598346
1742986080.0538692,0.001676106652749378
1742986080.0543573,0.0016770682744663883
1742986080.054845,0.0016703369224473144
1742986080.0553334,0.0016587974618431879
1742986080.0558214,0.0016453347578050403
1742986080.0563092,0.001643411514371019
1742986080.0567973,0.0016395650275029768
1742986080.057285,0.0016347569189179242
1742986080.0577734,0.0016116779977096713
1742986080.0582612,0.0015905223199354395
1742986080.0587492,0.0015309017734807858
1742986080.0592375,0.0015309017734807858
1742986080.0597253,0.0015309017734807858
1742986080.0602133,0.0015145542042916064
1742986080.0607011,0.001481859065913248
1742986080.0611892,0.0014405093320817945
1742986080.0616772,0.00141454554572251
1742986080.0621653,0.0014106990588544678
1742986080.0626533,0.0014116606805714782
1742986080.0631413,0.001405890950269415
1742986080.0636294,0.0014155071674395205
1742986080.0641172,0.0014635882532900476
1742986080.0646052,0.00153859474721687
1742986080.065093,0.0016030234022565764
1742986080.0655813,0.0016520661098241142
1742986080.0660694,0.0017011088173916518
1742986080.0665572,0.0017270726037509367
1742986080.0670455,0.0017434201729401159
1742986080.0675333,0.0017549596335442424
1742986080.0680213,0.0017607293638463057
1742986080.068509,0.0017126482779957783
1742986080.0689971,0.0016664904355792722
1742986080.0694854,0.001637641784068956
1742986080.0699732,0.0015876374547844076
1742986080.0704613,0.0015578271815570807
1742986080.0709493,0.0015328250169148068
1742986080.0714374,0.0015087844739895431
1742986080.0719252,0.0014982066351024272
1742986080.0724132,0.0014828206876302584
1742986080.072901,0.0014558952795539631
1742986080.0733893,0.0014453174406668474
1742986080.0738773,0.001494360148234385
1742986080.0743651,0.0015664817770101758
1742986080.0748534,0.0016597590835601987
1742986080.0753412,0.0017164947648638205
1742986080.0758293,0.0017328423340529997
1742986080.076317,0.0016982239522406203
1742986080.076805,0.0016741834093153567
1742986080.0772934,0.0016414882709369983
1742986080.0777812,0.0016251407017478189
1742986080.0782692,0.001643411514371019
1742986080.0787573,0.0016866844916364938
1742986080.0792453,0.0017251493603169155
1742986080.0797331,0.0017616909855633163
1742986080.0802212,0.0017338039557700106
1742986080.0807092,0.0017338039557700106
1742986080.0811973,0.0017338039557700106
1742986080.0816853,0.0017232261168828944
1742986080.082173,0.0016876461133535044
1742986080.0826614,0.0016520661098241142
1742986080.0831492,0.0016309104320498822
1742986080.0836372,0.0016414882709369983
1742986080.0841253,0.0016299488103328715
1742986080.084613,0.0016414882709369983
1742986080.0851014,0.0017155331431468101
1742986080.0855892,0.0017607293638463057
1742986080.0860772,0.001787654771922601
1742986080.0865655,0.0018078488279798224
1742986080.0870533,0.001819388288583949
1742986080.0875413,0.001825158018886012
1742986080.0880291,0.001823234775451991
1742986080.0885172,0.0018088104496968328
1742986080.0890052,0.0017943861239416747
1742986080.0894933,0.0017674607158653791
1742986080.089981,0.0017732304461674428
1742986080.0904694,0.0017761153113184745
1742986080.0909574,0.0017915012587906432
1742986080.0914452,0.001789578015356622
1742986080.0919333,0.001796309367375696
1742986080.092421,0.0018049639628287906
1742986080.0929093,0.001825158018886012
1742986080.0933971,0.0018386207229241598
1742986080.0938852,0.0018357358577731281
1742986080.0943735,0.0018280428840370436
1742986080.0948613,0.0017857315284885798
1742986080.0953493,0.0017491899032421791
1742986080.095837,0.0017549596335442424
1742986080.0963252,0.0017607293638463057
1742986080.0968132,0.001736688820921042
1742986080.0973012,0.001740535307789084
1742986080.0977893,0.0017463050380911475
1742986080.0982773,0.0017761153113184745
1742986080.0987654,0.0017847699067715694
1742986080.0992532,0.0017838082850545587
1742986080.0997412,0.0018059255845458012
1742986080.100229,0.0018290045057540543
1742986080.1007173,0.0018165034234329171
1742986080.1012053,0.0017790001764695059
1742986080.1016932,0.0016847612482024726
1742986080.1021814,0.0016847612482024726
1742986080.1026692,0.0016664904355792722
1742986080.1031573,0.0016482196229560722
1742986080.103645,0.0016318720537668926
1742986080.1041331,0.0016251407017478189
1742986080.1046214,0.0016116779977096713
1742986080.1051092,0.0016251407017478189
1742986080.1055973,0.0016482196229560722
1742986080.1060853,0.0016789915179004095
1742986080.1065733,0.0017203412517318628
1742986080.1070611,0.001747266659808158
1742986080.1075492,0.0017655374724313583
1742986080.1080372,0.001747266659808158
1742986080.1085253,0.0017386120643550632
1742986080.1090133,0.001711686656278768
1742986080.1095011,0.0017011088173916518
1742986080.1099894,0.0016866844916364938
1742986080.1104772,0.0016751450310323673
1742986080.1109653,0.0016703369224473144
1742986080.1114533,0.0016414882709369983
1742986080.111941,0.0016405266492199877
1742986080.1124294,0.0016328336754839034
1742986080.1129172,0.00162706394518184
1742986080.1134052,0.0016347569189179242
1742986080.1138933,0.0016414882709369983
1742986080.1143813,0.0016424498926540087
1742986080.1148694,0.0016357185406349348
1742986080.1153572,0.00162706394518184
1742986080.1158452,0.0016068698891246187
1742986080.1163332,0.0015885990765014183
1742986080.1168213,0.0015905223199354395
1742986080.117309,0.0016097547542756503
1742986080.1177974,0.0016136012411436926
1742986080.1182854,0.0016232174583137979
1742986080.1187732,0.0016222558365967873
1742986080.1192613,0.0016347569189179242
1742986080.119749,0.0016482196229560722
1742986080.1202374,0.0016174477280117346
1742986080.1207252,0.0015732131290292495
1742986080.1212132,0.0015462877209529542
1742986080.1217015,0.0015799444810483234
1742986080.1221893,0.0016212942148797769
1742986080.1226773,0.0016712985441643252
1742986080.1231651,0.0016712985441643252
1742986080.1236532,0.0016770682744663883
1742986080.1241412,0.0016482196229560722
1742986080.1246293,0.0016116779977096713
1742986080.1251173,0.0016030234022565764
1742986080.1256053,0.0015809061027653338
1742986080.1260934,0.0015443644775189334
1742986080.1265812,0.0015366715037828489
1742986080.1270692,0.0015270552866127436
1742986080.127557,0.0015087844739895431
1742986080.1280453,0.0015203239345936697
1742986080.1285334,0.001504937987121501
1742986080.1290212,0.0015212855563106803
1742986080.1295094,0.0015318633951977962
1742986080.1299973,0.0015337866386318172
1742986080.1304853,0.0015587888032740915
1742986080.130973,0.0015905223199354395
1742986080.1314611,0.0016212942148797769
1742986080.1319494,0.001637641784068956
1742986080.1324372,0.0016511044881071036
1742986080.1329253,0.0016684136790132934
1742986080.1334133,0.001676106652749378
1742986080.1339014,0.0016828380047684518
1742986080.1343892,0.0016876461133535044
1742986080.1348772,0.0016963007088065991
1742986080.135365,0.001692454221938557
1742986080.1358533,0.0017011088173916518
1742986080.1363413,0.0017251493603169155
1742986080.1368291,0.001747266659808158
1742986080.1373174,0.0017549596335442424
1742986080.1378052,0.0017655374724313583
1742986080.1382933,0.001764575850714348
1742986080.138781,0.0017616909855633163
1742986080.139269,0.001722264495165884
1742986080.1397574,0.0016943774653725783
1742986080.1402452,0.0016770682744663883
1742986080.1407332,0.001676106652749378
1742986080.1412213,0.0016587974618431879
1742986080.1417093,0.0016636055704282407
1742986080.1421971,0.001660720705277209
1742986080.1426852,0.0016337952972009138
1742986080.1431732,0.0015732131290292495
1742986080.1436613,0.0015510958295380072
1742986080.1441493,0.0015510958295380072
1742986080.144637,0.0015405179906508911
1742986080.1451254,0.0015068612305555221
1742986080.1456132,0.0014982066351024272
1742986080.1461012,0.0014808974441962374
1742986080.1465893,0.001439547710364784
1742986080.147077,0.0014347396017797313
1742986080.1475654,0.0014424325755158158
1742986080.1480532,0.0015107077174235642
1742986080.1485412,0.0016136012411436926
1742986080.1490295,0.0016655288138622618
1742986080.1495173,0.0017078401694107256
1742986080.1500053,0.0017357271992040314
1742986080.1504931,0.0017790001764695059
1742986080.1509812,0.0017905396370736324
1742986080.1514692,0.0017463050380911475
1742986080.1519573,0.0016866844916364938
1742986080.152445,0.0016655288138622618
1742986080.1529334,0.0016866844916364938
1742986080.1534214,0.0016943774653725783
1742986080.1539092,0.0016789915179004095
1742986080.1543972,0.0016636055704282407
1742986080.154885,0.001650142866390093
1742986080.1553733,0.0016299488103328715
1742986080.1558611,0.0016299488103328715
1742986080.1563492,0.0016424498926540087
1742986080.1568375,0.0016770682744663883
1742986080.1573253,0.0016847612482024726
1742986080.1578133,0.0017251493603169155
1742986080.158301,0.0017501515249591898
1742986080.1587892,0.0017203412517318628
1742986080.1592772,0.001736688820921042
1742986080.1597652,0.001745343416374137
1742986080.1602533,0.0017482282815251685
1742986080.1607413,0.0017626526072803265
1742986080.1612294,0.0017482282815251685
1742986080.1617172,0.0016626439487112301
1742986080.1622052,0.0015991769153885342
1742986080.162693,0.001584752589633376
1742986080.1631813,0.0016001385371055448
1742986080.1636693,0.001607831510841629
1742986080.1641572,0.0015376331254998595
1742986080.1646454,0.001391466624514257
1742986080.1651332,0.001391466624514257
1742986080.1656213,0.0013539633775508455
1742986080.166109,0.0013626179730039404
1742986080.1665971,0.001409737437137457
1742986080.1670854,0.0015145542042916064
1742986080.1675732,0.0016472580012390613
1742986080.1680613,0.0017616909855633163
1742986080.1685493,0.0018136185582818855
1742986080.1690373,0.001766499094148369
1742986080.1695251,0.001612639619426682
1742986080.1700132,0.001553019072972028
1742986080.1705012,0.0015107077174235642
1742986080.1709893,0.0014972450133854168
1742986080.1714773,0.0015126309608575854
1742986080.1719651,0.0015135925825745958
1742986080.1724534,0.00155590393812306
1742986080.1729412,0.0016232174583137979
1742986080.1734293,0.0016309104320498822
1742986080.1739173,0.0016539893532581352
1742986080.174405,0.00167995313961742
1742986080.1748934,0.0017463050380911475
1742986080.1753812,0.0017905396370736324
1742986080.1758692,0.0017886163936396114
1742986080.1763573,0.0017818850416205375
1742986080.1768453,0.0017674607158653791
1742986080.1773334,0.0017241877385999048
1742986080.1778212,0.001681876383051441
1742986080.1783092,0.0016722601658813356
1742986080.1787972,0.0016636055704282407
1742986080.1792853,0.001650142866390093
1742986080.179773,0.0016049466456905977
1742986080.1802614,0.001572251507312239
1742986080.1807494,0.0015309017734807858
1742986080.1812372,0.001534748260348828
1742986080.1817253,0.0015645585335761546
1742986080.182213,0.0015760979941802811
1742986080.1827013,0.0015991769153885342
1742986080.1831892,0.0016328336754839034
1742986080.1836772,0.001650142866390093
1742986080.1841655,0.0016578358401261775
1742986080.1846533,0.0016655288138622618
1742986080.1851413,0.0016232174583137979
1742986080.1856291,0.0016049466456905977
1742986080.1861172,0.0016049466456905977
1742986080.1866052,0.0016049466456905977
1742986080.1870933,0.0016203325931627662
1742986080.1875813,0.0016578358401261775
1742986080.1880693,0.0016789915179004095
1742986080.1885574,0.0017088017911277363
1742986080.1890452,0.001747266659808158
1742986080.1895332,0.0017395736860720736
1742986080.190021,0.001736688820921042
1742986080.1905093,0.001728034225467947
1742986080.1909974,0.0016876461133535044
1742986080.1914852,0.0016136012411436926
1742986080.1919734,0.0015607120467081125
1742986080.1924613,0.0015001298785364485
1742986080.1929493,0.0014616650098560266
1742986080.193437,0.001458780144704995
1742986080.1939251,0.0014482023058178788
1742986080.1944134,0.0014530104144029317
1742986080.1949012,0.0014789742007622162
1742986080.1953893,0.0015193623128766593
1742986080.1958773,0.0015232087997447015
1742986080.1963654,0.0015376331254998595
1742986080.1968532,0.0015395563689338807
1742986080.1973412,0.0015462877209529542
1742986080.197829,0.0015539806946890387
1742986080.1983173,0.0015934071850864711
1742986080.1988053,0.0016530277315411248
1742986080.1992931,0.001717456386580831
1742986080.1997814,0.0017607293638463057
1742986080.2002692,0.0017434201729401159
1742986080.2007573,0.0016982239522406203
1742986080.201245,0.0016559125966921565
1742986080.201733,0.0016482196229560722
1742986080.2022214,0.0016299488103328715
1742986080.2027092,0.0016068698891246187
1742986080.2031972,0.0015962920502375025
1742986080.2036853,0.001584752589633376
1742986080.2041733,0.0015712898855952285
1742986080.2046611,0.0015587888032740915
1742986080.2051492,0.0015501342078209964
1742986080.2056372,0.0015462877209529542
1742986080.2061253,0.0015587888032740915
1742986080.2066133,0.0015751363724632707
1742986080.207101,0.0016039850239735868
1742986080.2075894,0.0016039850239735868
1742986080.2080774,0.0016039850239735868
1742986080.2085652,0.00159148394165245
1742986080.2090533,0.0015760979941802811
1742986080.209541,0.0015770596158972917
1742986080.2100294,0.0015626352901421338
1742986080.2105172,0.001511669339140575
1742986080.2110052,0.001481859065913248
1742986080.2114935,0.001435701223496742
1742986080.2119813,0.001418392032590552
1742986080.2124693,0.0014472406841008684
1742986080.2129571,0.0014607033881390158
1742986080.2134452,0.001458780144704995
1742986080.2139332,0.0014530104144029317
1742986080.2144213,0.0014789742007622162
1742986080.214909,0.0015337866386318172
1742986080.2153974,0.0015568655598400703
1742986080.2158854,0.0015876374547844076
1742986080.2163732,0.0016347569189179242
1742986080.2168612,0.0016645671921452514
1742986080.217349,0.0016876461133535044
1742986080.2178373,0.0017203412517318628
1742986080.2183251,0.0017251493603169155
1742986080.2188132,0.0017251493603169155
1742986080.2193015,0.0017020704391086626
1742986080.2197893,0.0016943774653725783
1742986080.2202773,0.0016645671921452514
1742986080.220765,0.001650142866390093
1742986080.2212532,0.00160879313255864
1742986080.2217412,0.0015510958295380072
1742986080.2222292,0.001511669339140575
1742986080.2227173,0.0014914752830833533
1742986080.2232053,0.00148570555278129
1742986080.2236934,0.0015001298785364485
1742986080.2241812,0.001515515826008617
1742986080.2246692,0.001524170421461712
1742986080.225157,0.0015309017734807858
1742986080.2256453,0.0016039850239735868
1742986080.2261333,0.0016386034057859664
1742986080.2266212,0.0016559125966921565
1742986080.2271094,0.0016655288138622618
1742986080.2275972,0.0016578358401261775
1742986080.2280853,0.0016164861062947242
1742986080.228573,0.0015318633951977962
1742986080.2290611,0.0015318633951977962
1742986080.2295494,0.0015318633951977962
1742986080.2300372,0.001534748260348828
1742986080.2305253,0.00153859474721687
1742986080.2310133,0.0015376331254998595
1742986080.2315013,0.0015414796123679015
1742986080.2319891,0.0015366715037828489
1742986080.2324772,0.0015405179906508911
1742986080.2329652,0.0015501342078209964
1742986080.2334533,0.0015434028558019227
1742986080.2339413,0.0015222471780276907
1742986080.2344291,0.001511669339140575
1742986080.2349174,0.0015068612305555221
1742986080.2354052,0.001494360148234385
1742986080.2358932,0.0014924369048003642
1742986080.2363813,0.0014847439310642797
1742986080.236869,0.001471281227026132
1742986080.2373574,0.0014635882532900476
1742986080.2378452,0.0014530104144029317
1742986080.2383332,0.0014510871709689105
1742986080.2388213,0.0014558952795539631
1742986080.2393093,0.0015222471780276907
1742986080.2397974,0.0016289871886158611
1742986080.2402852,0.0017020704391086626
1742986080.2407732,0.001703032060825673
1742986080.2412612,0.001699185573957631
1742986080.2417493,0.0016837996264854622
1742986080.242237,0.0016664904355792722
1742986080.2427254,0.0016318720537668926
1742986080.2432134,0.0015578271815570807
1742986080.2437012,0.001464549875007058
1742986080.2441893,0.0013924282462312674
1742986080.244677,0.0013789655421931198
1742986080.2451653,0.0013905050027972462
1742986080.2456532,0.0014501255492519
1742986080.2461412,0.0015251320431787223
1742986080.2466295,0.001584752589633376
1742986080.2471173,0.0016405266492199877
1742986080.2476053,0.0016568742184091669
1742986080.2480931,0.00164437313608803
1742986080.2485812,0.00162706394518184
1742986080.2490692,0.001612639619426682
1742986080.2495573,0.0016184093497287452
1742986080.2500453,0.0017213028734488732
1742986080.2505333,0.0017213028734488732
1742986080.2510214,0.001726110982033926
1742986080.2515092,0.001734765577487021
1742986080.2519972,0.0017059169259767048
1742986080.252485,0.0016530277315411248
1742986080.2529733,0.0015962920502375025
1742986080.2534614,0.0015434028558019227
1742986080.2539492,0.0015443644775189334
1742986080.2544374,0.0015395563689338807
1742986080.2549253,0.0015578271815570807
1742986080.2554133,0.0015645585335761546
1742986080.255901,0.0015655201552931652
1742986080.2563891,0.0015655201552931652
1742986080.2568774,0.0015655201552931652
1742986080.2573652,0.0015664817770101758
1742986080.2578533,0.0015549423164060493
1742986080.2583413,0.0015674433987271864
1742986080.2588294,0.0015482109643869754
1742986080.2593172,0.0015510958295380072
1742986080.2598052,0.0015328250169148068
1742986080.260293,0.0015645585335761546
1742986080.2607813,0.0015943688068034815
1742986080.2612693,0.0015818677244823446
1742986080.2617571,0.0015462877209529542
1742986080.2622454,0.001488590417932322
1742986080.2627332,0.0014607033881390158
1742986080.2632213,0.0014847439310642797
1742986080.263709,0.001526093664895733
1742986080.264197,0.0015549423164060493
1742986080.2646854,0.0015780212376143023
1742986080.2651732,0.0015712898855952285
1742986080.2656612,0.0014933985265173746
1742986080.2661493,0.0014433941972328262
1742986080.2666373,0.0015020531219704695
1742986080.2671251,0.001526093664895733
1742986080.2676132,0.001504937987121501
1742986080.2681012,0.0014770509573281954
1742986080.2685893,0.0014808974441962374
1742986080.2690773,0.001529940151763775
1742986080.269565,0.001578982859331313
1742986080.2700534,0.001643411514371019
1742986080.2705414,0.0017011088173916518
1742986080.2710292,0.0017838082850545587
1742986080.2715173,0.0017838082850545587
1742986080.272005,0.0017164947648638205
1742986080.2724934,0.0015751363724632707
1742986080.2729812,0.0014780125790452058
1742986080.2734692,0.0014126223022884888
1742986080.2739575,0.0013962747330993096
1742986080.2744453,0.0014164687891565309
1742986080.2749333,0.001481859065913248
1742986080.2754211,0.0015357098820658385
1742986080.2759092,0.0015520574512550176
1742986080.2763972,0.001561673668425123
1742986080.2768853,0.001584752589633376
1742986080.277373,0.0015953304285204921
1742986080.2778614,0.0015885990765014183
1742986080.2783494,0.0015818677244823446
1742986080.2788372,0.001561673668425123
1742986080.2793252,0.001529940151763775
1742986080.279813,0.0015078228522725327
1742986080.2803013,0.0014847439310642797
1742986080.2807891,0.0014732044704601531
1742986080.2812772,0.0014482023058178788
1742986080.2817655,0.0014433941972328262
1742986080.2822533,0.0014414709537988052
1742986080.2827413,0.0014597417664220054
1742986080.283229,0.0015078228522725327
1742986080.2837172,0.001526093664895733
1742986080.2842052,0.0015674433987271864
1742986080.2846932,0.0015895606982184289
1742986080.2851813,0.0016174477280117346
1742986080.2856693,0.00162706394518184
1742986080.2861574,0.0016318720537668926
