1742986056.7809448,0.0015357098820658385
1742986056.782898,0.0015357098820658385
1742986056.7848508,0.0015357098820658385
1742986056.786804,0.0015357098820658385
1742986056.788757,0.0015357098820658385
1742986056.79071,0.0018347742360561175
1742986056.7926629,0.0017059169259767048
1742986056.7946157,0.001614562862860703
1742986056.7965689,0.001553019072972028
1742986056.7985218,0.0015664817770101758
1742986056.800475,0.0015510958295380072
1742986056.802428,0.0014424325755158158
1742986056.804381,0.0014337779800627209
1742986056.806334,0.001825158018886012
1742986056.808287,0.001915550460285003
1742986056.81024,0.0016530277315411248
1742986056.8121927,0.0014135839240054992
1742986056.8141458,0.0013549249992678562
1742986056.816099,0.0015068612305555221
1742986056.8180518,0.001865546131000455
1742986056.820005,0.0018742007264535498
1742986056.8219578,0.0015857142113503868
1742986056.823911,0.0014953217699513954
1742986056.8258638,0.0018790088350386024
1742986056.827817,0.001989595332494815
1742986056.82977,0.0019107423516999504
1742986056.831723,0.001854968292113339
1742986056.8336759,0.0017761153113184745
1742986056.8356287,0.0017107250345617575
1742986056.8375819,0.001549172586103986
1742986056.8395348,0.0014933985265173746
1742986056.841488,0.001602061780539566
1742986056.843441,0.0015982152936715238
1742986056.845394,0.0015635969118591442
1742986056.847347,0.0017443817946571263
1742986056.8493,0.001831889370905086
1742986056.851253,0.001823234775451991
1742986056.853206,0.0017463050380911475
1742986056.8551588,0.00162706394518184
1742986056.8571117,0.0015885990765014183
1742986056.8590648,0.00155590393812306
1742986056.861018,0.0016809147613344305
1742986056.8629708,0.00167995313961742
1742986056.864924,0.0017915012587906432
1742986056.8668768,0.0018366974794901385
1742986056.86883,0.001860738022415402
1742986056.870783,0.0017588061204122844
1742986056.872736,0.001736688820921042
1742986056.874689,0.0017530363901102212
1742986056.8766418,0.0017289958471849575
1742986056.8785949,0.0017414969295060949
1742986056.8805478,0.0017328423340529997
1742986056.882501,0.001703032060825673
1742986056.8844538,0.00162706394518184
1742986056.886407,0.0016030234022565764
1742986056.88836,0.0016366801623519456
1742986056.890313,0.0016722601658813356
1742986056.892266,0.0017184180082978418
1742986056.894219,0.0017193796300148522
1742986056.8961718,0.0016568742184091669
1742986056.8981247,0.0015232087997447015
1742986056.9000778,0.0016511044881071036
1742986056.902031,0.0016857228699194832
1742986056.9039838,0.0017270726037509367
1742986056.905937,0.0014982066351024272
1742986056.9078898,0.0014530104144029317
1742986056.909843,0.001578982859331313
1742986056.9117959,0.0017828466633375481
1742986056.913749,0.001886701808774687
1742986056.915702,0.0018174650451499277
1742986056.9176548,0.0016587974618431879
1742986056.9196079,0.0015578271815570807
1742986056.9215608,0.0017232261168828944
1742986056.923514,0.0018222731537349804
1742986056.9254668,0.0017520747683932106
1742986056.92742,0.0017107250345617575
1742986056.929373,0.0016414882709369983
1742986056.931326,0.0016309104320498822
1742986056.933279,0.0016712985441643252
1742986056.935232,0.0016828380047684518
1742986056.9371848,0.001736688820921042
1742986056.9391377,0.001703032060825673
1742986056.9410908,0.0015866758330673972
1742986056.943044,0.001464549875007058
1742986056.9449968,0.0015837909679163656
1742986056.94695,0.001883816943623655
1742986056.9489028,0.0017915012587906432
1742986056.950856,0.001637641784068956
1742986056.9528089,0.0016107163759926607
1742986056.954762,0.0016722601658813356
1742986056.956715,0.001607831510841629
1742986056.9586678,0.0013789655421931198
1742986056.9606209,0.0013828120290611619
1742986056.9625738,0.0016318720537668926
1742986056.964527,0.0018213115320179698
1742986056.9664798,0.0016703369224473144
1742986056.968433,0.0015462877209529542
1742986056.970386,0.0014424325755158158
1742986056.972339,0.0015184006911596484
1742986056.974292,0.0017270726037509367
1742986056.976245,0.0017203412517318628
1742986056.978198,0.0016472580012390613
1742986056.9801507,0.0016712985441643252
1742986056.9821038,0.0017818850416205375
1742986056.984057,0.001736688820921042
1742986056.9860098,0.001800155854243738
1742986056.987963,0.0018588147789813812
1742986056.9899158,0.0018097720714138432
1742986056.991869,0.0017693839592994006
1742986056.9938219,0.0017539980118272318
1742986056.995775,0.0017328423340529997
1742986056.997728,0.0017866931502055902
1742986056.999681,0.0018136185582818855
1742986057.001634,0.001837659101207149
1742986057.0035868,0.0017203412517318628
1742986057.00554,0.0015232087997447015
1742986057.0074928,0.0015414796123679015
1742986057.009446,0.0017674607158653791
1742986057.011399,0.0019424758683612984
1742986057.013352,0.0017039936825426836
1742986057.015305,0.0016405266492199877
1742986057.017258,0.0017501515249591898
1742986057.019211,0.0017376504426380526
1742986057.0211637,0.0016539893532581352
1742986057.0231168,0.0016943774653725783
1742986057.0250697,0.0017011088173916518
1742986057.0270228,0.0016597590835601987
1742986057.028976,0.0015962920502375025
1742986057.0309289,0.0014049293285524043
1742986057.032882,0.0014241617628926154
1742986057.0348349,0.0016049466456905977
1742986057.036788,0.0018386207229241598
1742986057.0387409,0.0019174737037190243
1742986057.040694,0.001837659101207149
1742986057.042647,0.0017232261168828944
1742986057.0445998,0.0016972623305236097
1742986057.046553,0.0016866844916364938
1742986057.0485058,0.0016866844916364938
1742986057.050459,0.0016837996264854622
1742986057.0524118,0.0016597590835601987
1742986057.054365,0.0016261023234648295
1742986057.056318,0.0016212942148797769
1742986057.058271,0.0016934158436555675
1742986057.060224,0.001711686656278768
1742986057.0621767,0.0016511044881071036
1742986057.0641298,0.0015568655598400703
1742986057.0660827,0.001515515826008617
1742986057.0680358,0.0016366801623519456
1742986057.069989,0.001819388288583949
1742986057.0719419,0.0017501515249591898
1742986057.073895,0.0019415142466442878
1742986057.0758479,0.0019145888385679927
1742986057.077801,0.0018290045057540543
1742986057.0797539,0.001764575850714348
1742986057.081707,0.0017078401694107256
1742986057.08366,0.0016636055704282407
1742986057.0856128,0.0015943688068034815
1742986057.087566,0.0015251320431787223
1742986057.0895188,0.0014905136613663427
1742986057.091472,0.0015732131290292495
1742986057.0934248,0.0016684136790132934
1742986057.095378,0.0016366801623519456
1742986057.097331,0.0017520747683932106
1742986057.099284,0.0017905396370736324
1742986057.101237,0.0018713158613025182
1742986057.10319,0.0018732391047365394
1742986057.1051428,0.0017722688244504322
1742986057.1070957,0.0017039936825426836
1742986057.1090488,0.0016934158436555675
1742986057.111002,0.0016837996264854622
1742986057.1129549,0.001699185573957631
1742986057.114908,0.0017088017911277363
1742986057.1168609,0.0017568828769782636
1742986057.118814,0.0016934158436555675
1742986057.1207669,0.0016030234022565764
1742986057.12272,0.001572251507312239
1742986057.1246731,0.001699185573957631
1742986057.1266258,0.0018136185582818855
1742986057.128579,0.0018992028910958239
1742986057.1305318,0.0017020704391086626
1742986057.132485,0.0015943688068034815
1742986057.1344378,0.0016030234022565764
1742986057.136391,0.0016636055704282407
1742986057.138344,0.0016280255668988505
1742986057.140297,0.001915550460285003
1742986057.14225,0.0019847872239097623
1742986057.144203,0.0018540066703963286
1742986057.1461558,0.0017886163936396114
1742986057.1481087,0.0018165034234329171
1742986057.1500618,0.0018347742360561175
1742986057.1520147,0.001764575850714348
1742986057.1539679,0.0016953390870895887
1742986057.155921,0.0017059169259767048
1742986057.1578739,0.0017915012587906432
1742986057.159827,0.0017059169259767048
1742986057.1617799,0.0015953304285204921
1742986057.163733,0.0015693666421612072
1742986057.1656861,0.0016299488103328715
1742986057.1676388,0.0016530277315411248
1742986057.169592,0.0016645671921452514
1742986057.1715448,0.0018011174759607485
1742986057.173498,0.0017616909855633163
1742986057.1754508,0.0017395736860720736
1742986057.177404,0.0016424498926540087
1742986057.1793568,0.0015818677244823446
1742986057.18131,0.001692454221938557
1742986057.183263,0.0017328423340529997
1742986057.185216,0.0016866844916364938
1742986057.1871688,0.0016039850239735868
1742986057.1891217,0.0016837996264854622
1742986057.1910748,0.0019530537072484143
1742986057.1930277,0.0020136358754200786
1742986057.1949809,0.0020069045234010047
1742986057.196934,0.0019270899208891296
1742986057.1988869,0.0019261282991721192
1742986057.20084,0.0019347828946252139
1742986057.202793,0.00196266992441852
1742986057.204746,0.0019386293814932561
1742986057.206699,0.0018636228875664339
1742986057.2086518,0.0018809320784726239
1742986057.210605,0.001867469374434476
1742986057.2125578,0.001831889370905086
1742986057.214511,0.0018213115320179698
1742986057.2164638,0.0018213115320179698
1742986057.218417,0.001833812614339107
1742986057.2203698,0.0018693926178684971
1742986057.222323,0.0018443904532262228
1742986057.224276,0.0018165034234329171
1742986057.226229,0.0018097720714138432
1742986057.228182,0.0017905396370736324
1742986057.2301347,0.0017607293638463057
1742986057.2320879,0.0017539980118272318
1742986057.2340407,0.0016549509749751456
1742986057.2359939,0.0016722601658813356
1742986057.237947,0.0017395736860720736
1742986057.2398999,0.0020367147966283317
1742986057.241853,0.0019569001941164565
1742986057.243806,0.0017943861239416747
1742986057.245759,0.0018174650451499277
1742986057.247712,0.0017828466633375481
1742986057.249665,0.001766499094148369
1742986057.251618,0.002029983444609258
1742986057.2535708,0.002115567777423196
1742986057.255524,0.0020184439840051313
1742986057.2574768,0.0019924801976458468
1742986057.25943,0.0019828639804757415
1742986057.2613828,0.0019674780330035725
1742986057.263336,0.001994403441079868
1742986057.265289,0.001970362898154604
1742986057.267242,0.001961708302701509
1742986057.269195,0.001964593167852541
1742986057.2711477,0.001913627216850982
1742986057.2731009,0.0019117039734169608
1742986057.2750537,0.0019443991117953196
1742986057.2770069,0.001996326684513889
1742986057.27896,0.001943437490078309
1742986057.2809129,0.0018722774830195286
1742986057.282866,0.0018857401870576765
1742986057.284819,0.0019924801976458468
1742986057.286772,0.002076141287025764
1742986057.288725,0.0021463396723675338
1742986057.290678,0.0021549942678206284
1742986057.2926307,0.002095373721365975
1742986057.2945838,0.00201652074057111
1742986057.296537,0.0019251666774551086
1742986057.2984898,0.0018732391047365394
1742986057.300443,0.0019367061380592351
1742986057.3023958,0.00206940993500669
1742986057.304349,0.002053062365817511
1742986057.306302,0.0020742180435917427
1742986057.308255,0.001994403441079868
1742986057.310208,0.0019597850592674884
1742986057.3121607,0.0019694012764375937
1742986057.3141139,0.002054985609251532
1742986057.3160667,0.0022473099526536407
1742986057.3180199,0.002208845083973219
1742986057.3199728,0.002136723455197428
1742986057.3219259,0.002045369392081427
1742986057.323879,0.0020069045234010047
1742986057.325832,0.001972286141588625
1742986057.327785,0.001994403441079868
1742986057.329738,0.0019780558718906884
1742986057.331691,0.0020934504779319537
1742986057.3336437,0.0020097893885520366
1742986057.3355968,0.0020751796653087533
1742986057.33755,0.0019443991117953196
1742986057.3395028,0.0018511218052452967
1742986057.341456,0.0019886337107778043
1742986057.3434088,0.002295391038504168
1742986057.345362,0.002204998597105177
1742986057.3473148,0.0021415315637824807
1742986057.349268,0.002155955889537639
1742986057.351221,0.002173265080443829
1742986057.353174,0.0021607639981226917
1742986057.3551269,0.0021761499455948603
1742986057.3570797,0.0021915358930670293
1742986057.3590329,0.002181919675896924
1742986057.3609858,0.0021636488632737236
1742986057.362939,0.0021049899385360803
1742986057.364892,0.001920358568870056
1742986057.366845,0.0018174650451499277
1742986057.368798,0.0019078574865489188
1742986057.370751,0.002105951560253091
1742986057.372704,0.0021251839945933015
1742986057.374657,0.0021001818299510276
1742986057.3766098,0.002150186159235576
1742986057.378563,0.0021674953501417656
1742986057.3805158,0.0021338385900463966
1742986057.382469,0.0020742180435917427
1742986057.3844218,0.0020290218228922476
1742986057.386375,0.0020136358754200786
1742986057.3883278,0.0020338299314773003
1742986057.390281,0.001916512082002014
1742986057.392234,0.0018184266668669381
1742986057.394187,0.0018088104496968328
1742986057.3961399,0.001825158018886012
1742986057.3980927,0.0018693926178684971
1742986057.4000459,0.0018876634304916973
1742986057.4019988,0.0018626612658494233
1742986057.403952,0.001780923419903527
1742986057.405905,0.0017338039557700106
1742986057.407858,0.0018597764006983916
1742986057.409811,0.0018886250522087077
1742986057.411764,0.0019126655951339716
1742986057.413717,0.001987672089060794
1742986057.41567,0.0019424758683612984
1742986057.4176228,0.0018578531572643706
1742986057.4195757,0.0017722688244504322
1742986057.4215288,0.0017847699067715694
1742986057.423482,0.0018972796476618029
1742986057.4254348,0.0019193969471530453
1742986057.427388,0.0018790088350386024
1742986057.4293408,0.0018309277491880755
1742986057.431294,0.0017741920678844532
1742986057.433247,0.0017780385547524955
1742986057.4352,0.0018270812623200332
1742986057.4371529,0.0018530450486793177
1742986057.4391057,0.0018616996441324129
1742986057.4410589,0.0018395823446411702
1742986057.4430118,0.0018213115320179698
1742986057.444965,0.0018040023411117802
1742986057.4469178,0.0018136185582818855
1742986057.448871,0.001819388288583949
1742986057.450824,0.0018011174759607485
1742986057.452777,0.0017924628805076536
1742986057.45473,0.0017241877385999048
1742986057.456683,0.0016876461133535044
1742986057.4586358,0.0015876374547844076
1742986057.4605887,0.0017770769330354849
1742986057.4625418,0.0018059255845458012
1742986057.464495,0.0018405439663581808
1742986057.4664478,0.0018578531572643706
1742986057.468401,0.0019232434340210873
1742986057.4703538,0.0019251666774551086
1742986057.472307,0.0018722774830195286
1742986057.4742599,0.0018722774830195286
1742986057.476213,0.0018886250522087077
1742986057.478166,0.0018078488279798224
1742986057.4801188,0.001747266659808158
1742986057.4820719,0.0017107250345617575
1742986057.4840248,0.0017799617981865167
1742986057.485978,0.0017780385547524955
1742986057.4879308,0.0017857315284885798
1742986057.489884,0.001823234775451991
1742986057.491837,0.0017713072027334216
1742986057.49379,0.001831889370905086
1742986057.495743,0.0018347742360561175
1742986057.497696,0.0018992028910958239
1742986057.499649,0.001886701808774687
1742986057.5016017,0.0018742007264535498
1742986057.5035548,0.0018722774830195286
1742986057.505508,0.0018597764006983916
1742986057.5074608,0.001831889370905086
1742986057.509414,0.001819388288583949
1742986057.5113668,0.001800155854243738
1742986057.51332,0.001819388288583949
1742986057.5152729,0.0018241963971690016
1742986057.517226,0.0018299661274710647
1742986057.519179,0.001819388288583949
1742986057.5211318,0.0017799617981865167
1742986057.5230849,0.001759767742129295
1742986057.5250378,0.0018261196406030224
1742986057.526991,0.0018386207229241598
1742986057.5289438,0.0018261196406030224
1742986057.530897,0.0017818850416205375
1742986057.53285,0.0018174650451499277
1742986057.534803,0.0018290045057540543
1742986057.536756,0.001831889370905086
1742986057.538709,0.001842467209792202
1742986057.540662,0.0018366974794901385
1742986057.5426147,0.0018290045057540543
1742986057.5445678,0.0017943861239416747
1742986057.546521,0.0017693839592994006
1742986057.5484738,0.0017693839592994006
1742986057.550427,0.0017857315284885798
1742986057.5523798,0.0018290045057540543
1742986057.554333,0.0017818850416205375
1742986057.5562859,0.001660720705277209
1742986057.558239,0.0015770596158972917
1742986057.560192,0.0016645671921452514
1742986057.5621448,0.0018290045057540543
1742986057.564098,0.001833812614339107
1742986057.5660508,0.0017588061204122844
1742986057.568004,0.0017203412517318628
1742986057.5699568,0.001770345581016411
1742986057.57191,0.001802079097677759
1742986057.573863,0.0017328423340529997
1742986057.575816,0.0016453347578050403
1742986057.577769,0.0016049466456905977
1742986057.579722,0.0016328336754839034
1742986057.581675,0.0016780298961833987
1742986057.5836277,0.001690530978504536
1742986057.5855808,0.001690530978504536
1742986057.5875337,0.00167995313961742
1742986057.5894868,0.0017097634128447469
1742986057.59144,0.0017193796300148522
1742986057.5933928,0.0017443817946571263
1742986057.595346,0.0017530363901102212
1742986057.5972989,0.0017184180082978418
1742986057.599252,0.0017088017911277363
1742986057.601205,0.0017309190906189787
1742986057.603158,0.0016751450310323673
1742986057.605111,0.0016309104320498822
1742986057.6070638,0.0015991769153885342
1742986057.609017,0.0016068698891246187
1742986057.6109698,0.0015674433987271864
1742986057.612923,0.0015770596158972917
1742986057.6148758,0.0016261023234648295
1742986057.616829,0.0016405266492199877
1742986057.618782,0.0016097547542756503
1742986057.620735,0.0015712898855952285
1742986057.622688,0.0016155244845777134
1742986057.624641,0.0017011088173916518
1742986057.6265938,0.001699185573957631
1742986057.6285467,0.0016876461133535044
1742986057.6304998,0.0016549509749751456
1742986057.632453,0.0016347569189179242
1742986057.6344059,0.0016309104320498822
1742986057.636359,0.0016203325931627662
1742986057.6383119,0.0016030234022565764
1742986057.640265,0.0016011001588225554
1742986057.6422179,0.0015684050204441968
1742986057.644171,0.0015924455633694603
1742986057.646124,0.0016212942148797769
1742986057.6480768,0.001681876383051441
1742986057.65003,0.0016222558365967873
1742986057.6519828,0.0015953304285204921
1742986057.653936,0.0015780212376143023
1742986057.6558888,0.0015568655598400703
1742986057.657842,0.0015020531219704695
1742986057.659795,0.001526093664895733
1742986057.661748,0.0015866758330673972
1742986057.663701,0.0016241790800308085
1742986057.665654,0.0016530277315411248
1742986057.6676068,0.0016616823269942195
1742986057.6695597,0.0016116779977096713
1742986057.6715128,0.0015578271815570807
1742986057.673466,0.0014972450133854168
1742986057.6754189,0.0015212855563106803
1742986057.677372,0.0015414796123679015
1742986057.6793249,0.0015520574512550176
1742986057.681278,0.0015684050204441968
1742986057.6832309,0.0015982152936715238
1742986057.685184,0.0015972536719545134
1742986057.6871367,0.0015770596158972917
1742986057.6890898,0.0015357098820658385
1742986057.691043,0.0014933985265173746
1742986057.6929958,0.0015039763654044905
1742986057.694949,0.001561673668425123
1742986057.6969018,0.0015943688068034815
1742986057.698855,0.0015684050204441968
1742986057.700808,0.0015280169083297542
1742986057.702761,0.001504937987121501
1742986057.704714,0.0015328250169148068
1742986057.706667,0.0015587888032740915
1742986057.7086198,0.0016107163759926607
1742986057.7105727,0.0016472580012390613
1742986057.7125258,0.00160879313255864
1742986057.7144787,0.0015607120467081125
1742986057.7164319,0.0015453260992359438
1742986057.718385,0.0015395563689338807
1742986057.7203379,0.001494360148234385
1742986057.722291,0.0014453174406668474
1742986057.7242439,0.0015414796123679015
1742986057.726197,0.0016116779977096713
1742986057.7281501,0.0016136012411436926
1742986057.7301028,0.0015424412340849121
1742986057.732056,0.001504937987121501
1742986057.7340088,0.0014991682568194376
1742986057.735962,0.001553019072972028
1742986057.7379148,0.0016184093497287452
1742986057.739868,0.0016011001588225554
1742986057.7418208,0.001570328263878218
1742986057.743774,0.0015424412340849121
1742986057.745727,0.0015039763654044905
1742986057.74768,0.0015001298785364485
1742986057.749633,0.0015578271815570807
1742986057.7515857,0.0015635969118591442
1742986057.7535388,0.0015684050204441968
1742986057.7554917,0.0015866758330673972
1742986057.7574449,0.0015972536719545134
1742986057.759398,0.0015655201552931652
1742986057.7613509,0.0015626352901421338
1742986057.763304,0.0015664817770101758
1742986057.765257,0.0015953304285204921
1742986057.76721,0.00159148394165245
1742986057.769163,0.0015712898855952285
1742986057.7711158,0.0015232087997447015
1742986057.773069,0.0014991682568194376
1742986057.7750218,0.0014924369048003642
1742986057.776975,0.001529940151763775
1742986057.7789278,0.0015635969118591442
1742986057.780881,0.0015924455633694603
1742986057.7828338,0.0015058996088385115
1742986057.784787,0.0014337779800627209
1742986057.78674,0.0015097460957065538
1742986057.788693,0.0016174477280117346
1742986057.790646,0.0017088017911277363
1742986057.7925987,0.0017068785476937152
1742986057.7945518,0.0016309104320498822
1742986057.7965047,0.0015741747507462603
1742986057.7984579,0.001578982859331313
1742986057.800411,0.0016136012411436926
1742986057.8023639,0.0016366801623519456
1742986057.804317,0.0016174477280117346
1742986057.80627,0.001605908267407608
1742986057.808223,0.0015741747507462603
1742986057.810176,0.0015289785300467646
1742986057.8121288,0.0015097460957065538
1742986057.814082,0.0015693666421612072
1742986057.8160348,0.001637641784068956
1742986057.817988,0.0016712985441643252
1742986057.8199408,0.0016386034057859664
1742986057.821894,0.0015991769153885342
1742986057.8238468,0.001559750424991102
1742986057.8258,0.0014962833916684062
1742986057.827753,0.0015414796123679015
1742986057.829706,0.0015309017734807858
1742986057.831659,0.0015510958295380072
1742986057.8336117,0.0015780212376143023
1742986057.8355649,0.0015780212376143023
1742986057.8375177,0.0015280169083297542
1742986057.8394709,0.001515515826008617
1742986057.841424,0.0015068612305555221
1742986057.8433769,0.0015337866386318172
1742986057.84533,0.0015962920502375025
1742986057.847283,0.0015482109643869754
1742986057.849236,0.0015684050204441968
1742986057.851189,0.0016011001588225554
1742986057.853142,0.0015809061027653338
1742986057.8550947,0.0016424498926540087
1742986057.8570478,0.0016068698891246187
1742986057.859001,0.001607831510841629
1742986057.8609538,0.001614562862860703
1742986057.862907,0.0016309104320498822
1742986057.8648598,0.0016520661098241142
1742986057.866813,0.0016482196229560722
1742986057.868766,0.001614562862860703
1742986057.870719,0.001605908267407608
1742986057.872672,0.0016116779977096713
1742986057.874625,0.001582829346199355
1742986057.8765779,0.0015693666421612072
1742986057.8785307,0.001561673668425123
1742986057.8804839,0.001570328263878218
1742986057.8824368,0.0015693666421612072
1742986057.8843899,0.0015953304285204921
1742986057.886343,0.0016174477280117346
1742986057.888296,0.0016039850239735868
1742986057.890249,0.0016155244845777134
1742986057.892202,0.0015924455633694603
1742986057.894155,0.0015895606982184289
1742986057.8961077,0.001578982859331313
1742986057.8980608,0.0015712898855952285
1742986057.900014,0.0015741747507462603
1742986057.9019668,0.0015972536719545134
1742986057.90392,0.0015972536719545134
1742986057.9058728,0.0016136012411436926
1742986057.907826,0.0016097547542756503
1742986057.9097788,0.0015924455633694603
1742986057.911732,0.0015655201552931652
1742986057.913685,0.0015837909679163656
1742986057.915638,0.0015876374547844076
1742986057.9175909,0.001584752589633376
1742986057.9195437,0.0015943688068034815
1742986057.9214969,0.0015818677244823446
1742986057.9234498,0.0015655201552931652
1742986057.9254029,0.0015424412340849121
1742986057.927356,0.0015318633951977962
1742986057.929309,0.0015587888032740915
1742986057.931262,0.0015895606982184289
1742986057.933215,0.0015982152936715238
1742986057.935168,0.0015655201552931652
1742986057.9371207,0.0014895520396493323
1742986057.9390738,0.0014558952795539631
1742986057.941027,0.0014607033881390158
1742986057.9429798,0.0015732131290292495
1742986057.944933,0.0016011001588225554
1742986057.9468858,0.0015857142113503868
1742986057.948839,0.0016001385371055448
1742986057.9507918,0.0016251407017478189
1742986057.952745,0.0015818677244823446
1742986057.954698,0.001561673668425123
1742986057.956651,0.0015539806946890387
1742986057.9586039,0.0015289785300467646
1742986057.9605567,0.0015164774477256276
1742986057.9625099,0.0014924369048003642
1742986057.9644628,0.0015058996088385115
1742986057.966416,0.0015107077174235642
1742986057.968369,0.0014780125790452058
1742986057.970322,0.0014491639275348897
1742986057.972275,0.0015203239345936697
1742986057.974228,0.001572251507312239
1742986057.976181,0.0016780298961833987
1742986057.978134,0.001717456386580831
1742986057.9800868,0.0017039936825426836
1742986057.9820397,0.0016626439487112301
1742986057.9839928,0.0016405266492199877
1742986057.985946,0.00162706394518184
1742986057.9878988,0.0016001385371055448
1742986057.989852,0.001578982859331313
1742986057.9918048,0.001582829346199355
1742986057.993758,0.0015982152936715238
1742986057.995711,0.0016068698891246187
1742986057.997664,0.001612639619426682
1742986057.999617,0.0016414882709369983
1742986058.0015697,0.001607831510841629
1742986058.0035229,0.0015972536719545134
1742986058.0054758,0.0016011001588225554
1742986058.007429,0.0016116779977096713
1742986058.0093818,0.0017241877385999048
1742986058.011335,0.001703032060825673
1742986058.013288,0.001713609899712789
1742986058.015241,0.001713609899712789
1742986058.017194,0.0016741834093153567
1742986058.019147,0.0016299488103328715
1742986058.0210998,0.0015462877209529542
1742986058.0230527,0.001529940151763775
1742986058.0250058,0.00164437313608803
1742986058.026959,0.0017655374724313583
1742986058.0289118,0.0017318807123359893
1742986058.030865,0.0017039936825426836
1742986058.0328178,0.0017395736860720736
1742986058.034771,0.0017088017911277363
1742986058.0367239,0.0016780298961833987
1742986058.038677,0.0016943774653725783
1742986058.04063,0.0017001471956746414
1742986058.0425828,0.0017126482779957783
1742986058.0445359,0.0017097634128447469
1742986058.0464888,0.0016809147613344305
1742986058.048442,0.001681876383051441
1742986058.0503948,0.0016982239522406203
1742986058.052348,0.0016876461133535044
1742986058.054301,0.001704955304259694
1742986058.056254,0.0017924628805076536
1742986058.058207,0.0018097720714138432
1742986058.06016,0.0017818850416205375
1742986058.0621128,0.0017578444986952738
1742986058.0640657,0.0017395736860720736
1742986058.0660188,0.0017097634128447469
1742986058.067972,0.0017790001764695059
1742986058.0699248,0.001819388288583949
1742986058.071878,0.0017578444986952738
1742986058.0738308,0.0016837996264854622
1742986058.075784,0.0017309190906189787
1742986058.0777369,0.0018453520749432334
1742986058.07969,0.001932859651191193
1742986058.081643,0.0018078488279798224
1742986058.0835958,0.0017847699067715694
1742986058.0855489,0.0018328509926220963
1742986058.0875018,0.0018578531572643706
1742986058.089455,0.0017828466633375481
1742986058.0914078,0.001704955304259694
1742986058.093361,0.0017164947648638205
1742986058.095314,0.0018078488279798224
1742986058.097267,0.0018415055880751912
1742986058.09922,0.001846313696660244
1742986058.101173,0.001793424502224664
1742986058.103126,0.001740535307789084
1742986058.1050787,0.0017097634128447469
1742986058.1070318,0.0017539980118272318
1742986058.108985,0.001793424502224664
1742986058.1109378,0.0017924628805076536
1742986058.112891,0.0017741920678844532
1742986058.1148438,0.0017482282815251685
1742986058.116797,0.0017386120643550632
1742986058.1187499,0.001740535307789084
1742986058.120703,0.0017376504426380526
1742986058.122656,0.0017434201729401159
1742986058.124609,0.0017145715214297995
1742986058.1265619,0.0016511044881071036
1742986058.1285148,0.0016578358401261775
1742986058.130468,0.0016857228699194832
1742986058.1324208,0.0017251493603169155
1742986058.134374,0.0016866844916364938
1742986058.136327,0.0016837996264854622
1742986058.13828,0.0016664904355792722
1742986058.140233,0.0016511044881071036
1742986058.142186,0.0016251407017478189
1742986058.144139,0.001572251507312239
1742986058.1460917,0.0016712985441643252
1742986058.1480448,0.0018145801799988959
1742986058.1499977,0.0017991942325267273
1742986058.1519508,0.001713609899712789
1742986058.153904,0.0016357185406349348
1742986058.1558568,0.0016453347578050403
1742986058.15781,0.0017338039557700106
1742986058.1597629,0.0017357271992040314
1742986058.161716,0.001759767742129295
1742986058.163669,0.0017953477456586853
1742986058.165622,0.001763614228997337
1742986058.167575,0.0017549596335442424
1742986058.1695278,0.0017232261168828944
1742986058.171481,0.0016751450310323673
1742986058.1734338,0.0016722601658813356
1742986058.175387,0.0016712985441643252
1742986058.1773398,0.0016645671921452514
1742986058.179293,0.0016212942148797769
1742986058.181246,0.0015953304285204921
1742986058.183199,0.0015635969118591442
1742986058.185152,0.0015549423164060493
1742986058.1871047,0.0015318633951977962
1742986058.1890578,0.0015318633951977962
1742986058.1910107,0.0015395563689338807
1742986058.1929638,0.0015520574512550176
1742986058.194917,0.0015501342078209964
1742986058.1968699,0.001549172586103986
1742986058.198823,0.0015395563689338807
1742986058.2007759,0.0015135925825745958
1742986058.202729,0.001439547710364784
1742986058.2046819,0.0014010828416843623
1742986058.206635,0.0013818504073441513
1742986058.208588,0.0014866671744983007
1742986058.2105408,0.0015732131290292495
1742986058.212494,0.001464549875007058
1742986058.2144468,0.0014337779800627209
1742986058.2164,0.0014780125790452058
1742986058.2183528,0.0015684050204441968
1742986058.220306,0.0016136012411436926
1742986058.222259,0.0015866758330673972
1742986058.224212,0.0015424412340849121
1742986058.226165,0.0014530104144029317
1742986058.228118,0.00141454554572251
1742986058.2300708,0.0013674260815889933
1742986058.2320237,0.0013135752654364029
1742986058.2339768,0.0014924369048003642
1742986058.23593,0.0015212855563106803
1742986058.2378829,0.0016828380047684518
1742986058.239836,0.001812656936564875
1742986058.2417889,0.0017270726037509367
1742986058.243742,0.0016116779977096713
1742986058.2456949,0.0015885990765014183
1742986058.247648,0.0015837909679163656
1742986058.2496011,0.0016405266492199877
1742986058.2515538,0.0016837996264854622
1742986058.253507,0.001660720705277209
1742986058.2554598,0.0015982152936715238
1742986058.257413,0.0015568655598400703
1742986058.2593658,0.0016049466456905977
1742986058.261319,0.0015626352901421338
1742986058.263272,0.0015991769153885342
1742986058.265225,0.0016741834093153567
1742986058.267178,0.0016751450310323673
1742986058.269131,0.0016049466456905977
1742986058.2710838,0.001584752589633376
1742986058.2730367,0.001582829346199355
1742986058.2749898,0.0015607120467081125
1742986058.2769427,0.0015126309608575854
1742986058.2788959,0.0014222385194585943
1742986058.280849,0.001372234190174046
1742986058.2828019,0.0015030147436874799
1742986058.284755,0.0015424412340849121
1742986058.2867079,0.001515515826008617
1742986058.288661,0.001427046628043647
1742986058.2906141,0.0013578098644188878
1742986058.2925668,0.0013462704038147612
1742986058.29452,0.0014251233846096258
1742986058.2964728,0.0015434028558019227
1742986058.298426,0.0016520661098241142
1742986058.3003788,0.0015270552866127436
1742986058.302332,0.0014664731184410792
1742986058.3042848,0.0014568569012709737
1742986058.306238,0.0014078141937034362
1742986058.308191,0.0013885817593632251
1742986058.310144,0.0012760720184729916
1742986058.3120968,0.001427046628043647
1742986058.3140497,0.0015251320431787223
1742986058.3160028,0.0014453174406668474
1742986058.3179557,0.0013674260815889933
1742986058.3199089,0.0014905136613663427
1742986058.321862,0.0015770596158972917
1742986058.3238149,0.0015991769153885342
1742986058.325768,0.0015645585335761546
1742986058.3277209,0.0015424412340849121
1742986058.329674,0.0015097460957065538
1742986058.331627,0.0014337779800627209
1742986058.3335798,0.0014558952795539631
1742986058.335533,0.0015087844739895431
1742986058.3374858,0.0015424412340849121
1742986058.339439,0.0014905136613663427
1742986058.3413918,0.001458780144704995
1742986058.343345,0.0014347396017797313
1742986058.3452978,0.0015251320431787223
1742986058.347251,0.0015972536719545134
1742986058.349204,0.0016328336754839034
1742986058.351157,0.0016289871886158611
1742986058.35311,0.0015751363724632707
1742986058.3550627,0.0015607120467081125
1742986058.3570158,0.001561673668425123
1742986058.3589687,0.0015414796123679015
1742986058.3609219,0.0015809061027653338
1742986058.362875,0.0016328336754839034
1742986058.3648279,0.0015991769153885342
1742986058.366781,0.0015607120467081125
1742986058.368734,0.001368387703306004
1742986058.370687,0.0012279909326224643
1742986058.37264,0.0012251060674714328
1742986058.374593,0.0015780212376143023
1742986058.376546,0.0016914926002215465
1742986058.3784988,0.001534748260348828
1742986058.380452,0.0015280169083297542
1742986058.3824048,0.001526093664895733
1742986058.384358,0.0014453174406668474
1742986058.3863108,0.0014106990588544678
1742986058.388264,0.0014164687891565309
1742986058.390217,0.0015732131290292495
1742986058.39217,0.0015982152936715238
1742986058.394123,0.0015020531219704695
1742986058.3960757,0.001391466624514257
1742986058.3980289,0.0014155071674395205
1742986058.3999817,0.0015712898855952285
1742986058.4019349,0.0015501342078209964
1742986058.403888,0.0014933985265173746
1742986058.4058409,0.0014655114967240688
1742986058.407794,0.0015184006911596484
1742986058.409747,0.0015837909679163656
1742986058.4117,0.0014837823093472688
1742986058.413653,0.0013933898679482778
1742986058.415606,0.0013164601305874343
1742986058.4175587,0.0013241531043235186
1742986058.4195118,0.0014414709537988052
1742986058.421465,0.0014414709537988052
1742986058.4234178,0.0014164687891565309
1742986058.425371,0.0014203152760245731
1742986058.4273238,0.0014924369048003642
1742986058.429277,0.0015087844739895431
1742986058.43123,0.0015097460957065538
1742986058.433183,0.001481859065913248
1742986058.435136,0.001395313111382299
1742986058.4370887,0.0014087758154204466
1742986058.4390419,0.0015145542042916064
1742986058.4409947,0.0015943688068034815
1742986058.4429479,0.001511669339140575
1742986058.4449008,0.0014280082497606574
1742986058.4468539,0.0013481936472487825
1742986058.448807,0.0013337693214936243
1742986058.45076,0.0013818504073441513
1742986058.452713,0.0014299314931946786
1742986058.454666,0.0014164687891565309
1742986058.456619,0.0015222471780276907
1742986058.4585717,0.0015549423164060493
1742986058.4605248,0.0016357185406349348
1742986058.462478,0.0015501342078209964
1742986058.4644308,0.0014962833916684062
1742986058.466384,0.0014895520396493323
1742986058.4683368,0.0014982066351024272
1742986058.47029,0.001517439069442638
1742986058.4722428,0.0014732044704601531
1742986058.474196,0.001409737437137457
1742986058.476149,0.001319344995738466
1742986058.478102,0.0014424325755158158
1742986058.4800549,0.0014116606805714782
1742986058.4820077,0.0014482023058178788
1742986058.4839609,0.0013356925649276451
1742986058.4859138,0.0014607033881390158
1742986058.4878669,0.0016953390870895887
1742986058.48982,0.0016414882709369983
1742986058.491773,0.0014895520396493323
1742986058.493726,0.0014376244669307631
1742986058.495679,0.0015020531219704695
1742986058.497632,0.0014953217699513954
1742986058.499585,0.0015991769153885342
1742986058.5015378,0.0014905136613663427
1742986058.503491,0.0013818504073441513
1742986058.5054438,0.0013770422987590986
1742986058.507397,0.0014510871709689105
1742986058.5093498,0.0015058996088385115
1742986058.511303,0.0015232087997447015
1742986058.5132558,0.001395313111382299
1742986058.515209,0.0013453087820977508
1742986058.517162,0.001582829346199355
1742986058.519115,0.0016684136790132934
1742986058.5210679,0.0015809061027653338
1742986058.5230207,0.0015184006911596484
1742986058.5249739,0.0014799358224792268
1742986058.5269268,0.0014674347401580896
1742986058.52888,0.0014482023058178788
1742986058.530833,0.0013001125613982551
1742986058.532786,0.0013001125613982551
1742986058.534739,0.0015203239345936697
1742986058.536692,0.001471281227026132
1742986058.538645,0.0014087758154204466
1742986058.540598,0.0014751277138941741
1742986058.5425508,0.0014780125790452058
1742986058.5445037,0.001452048792685921
1742986058.5464568,0.0013606947295699194
1742986058.54841,0.0016636055704282407
1742986058.5503628,0.0017463050380911475
1742986058.552316,0.001605908267407608
1742986058.5542688,0.001553019072972028
1742986058.556222,0.0015376331254998595
1742986058.558175,0.0015078228522725327
1742986058.560128,0.0015135925825745958
1742986058.5620809,0.0015251320431787223
1742986058.5640337,0.0015501342078209964
1742986058.5659869,0.0015568655598400703
1742986058.5679398,0.0015068612305555221
1742986058.569893,0.0014607033881390158
1742986058.5718458,0.0014241617628926154
1742986058.573799,0.0014549336578369527
1742986058.575752,0.0015635969118591442
1742986058.577705,0.0015712898855952285
1742986058.579658,0.001547249342669965
1742986058.581611,0.0015030147436874799
1742986058.5835638,0.0014732044704601531
1742986058.5855167,0.0014135839240054992
1742986058.5874698,0.0012568395841327806
1742986058.589423,0.0011606774124317263
1742986058.5913758,0.0010789395664858301
1742986058.593329,0.001152984438695642
1742986058.5952818,0.00143281635834571
1742986058.597235,0.0016289871886158611
1742986058.5991879,0.001643411514371019
1742986058.601141,0.0016068698891246187
1742986058.603094,0.0015443644775189334
1742986058.6050467,0.0015376331254998595
1742986058.6069999,0.0015405179906508911
1742986058.6089528,0.0016222558365967873
1742986058.610906,0.0016703369224473144
1742986058.6128588,0.0016280255668988505
1742986058.614812,0.0015895606982184289
1742986058.616765,0.0015030147436874799
1742986058.618718,0.0015030147436874799
1742986058.620671,0.001487628796215311
1742986058.622624,0.0015270552866127436
1742986058.624577,0.0015568655598400703
1742986058.6265297,0.00167995313961742
1742986058.6284828,0.0016241790800308085
1742986058.630436,0.0015328250169148068
1742986058.6323888,0.0014991682568194376
1742986058.634342,0.0014318547366286996
1742986058.6362948,0.001511669339140575
1742986058.638248,0.0015895606982184289
1742986058.6402009,0.0014905136613663427
1742986058.642154,0.0014087758154204466
1742986058.644107,0.0013924282462312674
1742986058.6460598,0.0016193709714457556
1742986058.6480129,0.001605908267407608
1742986058.6499658,0.001427046628043647
1742986058.651919,0.0013558866209848668
1742986058.6538718,0.0013789655421931198
1742986058.655825,0.0015309017734807858
1742986058.657778,0.0016587974618431879
1742986058.659731,0.0016837996264854622
1742986058.661684,0.0015732131290292495
1742986058.663637,0.0015424412340849121
1742986058.66559,0.0015953304285204921
1742986058.6675427,0.001582829346199355
1742986058.6694958,0.001553019072972028
1742986058.671449,0.0014539720361199423
1742986058.6734018,0.0013751190553250774
1742986058.675355,0.0013885817593632251
1742986058.6773078,0.0014664731184410792
1742986058.679261,0.0015520574512550176
1742986058.6812139,0.0016876461133535044
1742986058.683167,0.0017424585512231053
1742986058.68512,0.0016530277315411248
1742986058.6870728,0.0015664817770101758
1742986058.6890259,0.0016030234022565764
1742986058.6909788,0.0016357185406349348
1742986058.692932,0.0017530363901102212
1742986058.6948848,0.001726110982033926
1742986058.696838,0.0017241877385999048
1742986058.698791,0.0017088017911277363
1742986058.700744,0.0016963007088065991
1742986058.702697,0.0016559125966921565
1742986058.70465,0.0015280169083297542
1742986058.706603,0.0014366628452137523
1742986058.7085557,0.0014674347401580896
1742986058.7105088,0.0015424412340849121
1742986058.7124617,0.001549172586103986
1742986058.7144148,0.001602061780539566
1742986058.716368,0.001572251507312239
1742986058.7183208,0.0016453347578050403
1742986058.720274,0.0016241790800308085
1742986058.7222269,0.0016751450310323673
1742986058.72418,0.001681876383051441
1742986058.726133,0.0016001385371055448
1742986058.728086,0.0016318720537668926
1742986058.730039,0.0016049466456905977
1742986058.7319918,0.0014164687891565309
1742986058.733945,0.0013828120290611619
1742986058.7358978,0.0014760893356111845
1742986058.737851,0.0016001385371055448
1742986058.7398038,0.0015434028558019227
1742986058.741757,0.0015857142113503868
1742986058.74371,0.0016222558365967873
1742986058.745663,0.0015087844739895431
1742986058.747616,0.0014924369048003642
1742986058.749569,0.0014635882532900476
1742986058.7515218,0.0014837823093472688
1742986058.7534747,0.0015126309608575854
1742986058.7554278,0.0015607120467081125
1742986058.757381,0.0016530277315411248
1742986058.7593338,0.0016530277315411248
1742986058.761287,0.001699185573957631
1742986058.7632399,0.0016011001588225554
1742986058.765193,0.0015405179906508911
1742986058.7671459,0.0015337866386318172
1742986058.769099,0.0015741747507462603
1742986058.771052,0.0015905223199354395
1742986058.7730048,0.0016280255668988505
1742986058.774958,0.0015924455633694603
1742986058.7769108,0.001559750424991102
1742986058.778864,0.0014414709537988052
1742986058.7808168,0.0013626179730039404
1742986058.78277,0.001488590417932322
1742986058.784723,0.0017097634128447469
1742986058.786676,0.0016212942148797769
1742986058.788629,0.0014732044704601531
1742986058.790582,0.0014155071674395205
1742986058.7925348,0.0013568482427018774
1742986058.7944877,0.00143281635834571
1742986058.7964408,0.0015020531219704695
1742986058.798394,0.0015482109643869754
1742986058.8003469,0.0014472406841008684
1742986058.8023,0.0015068612305555221
1742986058.8042529,0.0015058996088385115
1742986058.806206,0.0013924282462312674
1742986058.8081589,0.0013472320255317716
1742986058.810112,0.0013174217523044451
1742986058.812065,0.0013376158083616663
1742986058.8140178,0.0015462877209529542
1742986058.815971,0.001681876383051441
1742986058.8179238,0.0017549596335442424
1742986058.819877,0.0016549509749751456
1742986058.8218298,0.0015539806946890387
1742986058.823783,0.0015030147436874799
1742986058.825736,0.0014308931149116892
1742986058.827689,0.001312613643719392
1742986058.829642,0.0013116520220023816
1742986058.831595,0.0014001212199673517
1742986058.8335478,0.0016203325931627662
1742986058.8355007,0.0016309104320498822
1742986058.8374538,0.0015539806946890387
1742986058.839407,0.0015655201552931652
1742986058.8413599,0.0016414882709369983
1742986058.843313,0.0015443644775189334
1742986058.8452659,0.0015107077174235642
1742986058.847219,0.0014991682568194376
1742986058.8491719,0.0015232087997447015
1742986058.851125,0.0015770596158972917
1742986058.8530781,0.0016222558365967873
1742986058.8550308,0.0015222471780276907
1742986058.856984,0.0013924282462312674
1742986058.8589368,0.0013433855386637296
1742986058.86089,0.0014453174406668474
1742986058.8628428,0.0014135839240054992
1742986058.864796,0.0014260850063266366
1742986058.8667488,0.0013260763477575398
1742986058.868702,0.0012885731007941286
1742986058.870655,0.001351078512399814
1742986058.872608,0.0017395736860720736
1742986058.874561,0.0017068785476937152
1742986058.8765137,0.0015818677244823446
1742986058.8784668,0.0014808974441962374
1742986058.8804197,0.0014433941972328262
1742986058.8823729,0.0014962833916684062
1742986058.884326,0.0015645585335761546
1742986058.8862789,0.0013106904002853712
1742986058.888232,0.0013010741831152657
1742986058.8901849,0.0013289612129085717
1742986058.892138,0.0015991769153885342
1742986058.894091,0.0016491812446730826
1742986058.8960438,0.0017395736860720736
1742986058.897997,0.001669375300730304
1742986058.8999498,0.001529940151763775
1742986058.901903,0.001524170421461712
1742986058.9038558,0.0014751277138941741
1742986058.905809,0.0014924369048003642
1742986058.9077618,0.0016107163759926607
1742986058.909715,0.0016636055704282407
1742986058.911668,0.0015934071850864711
1742986058.913621,0.0015097460957065538
1742986058.915574,0.001395313111382299
1742986058.9175267,0.001428969871477668
1742986058.9194798,0.001681876383051441
1742986058.9214327,0.0017607293638463057
1742986058.9233859,0.0016251407017478189
1742986058.925339,0.0015962920502375025
1742986058.9272919,0.0015780212376143023
1742986058.929245,0.0015501342078209964
1742986058.931198,0.0015222471780276907
1742986058.933151,0.0015328250169148068
1742986058.935104,0.0015587888032740915
1742986058.9370568,0.0015087844739895431
1742986058.93901,0.001494360148234385
1742986058.9409628,0.001582829346199355
1742986058.942916,0.0014347396017797313
1742986058.9448688,0.0011789482250549267
1742986058.946822,0.0009885471250868389
1742986058.9487748,0.000976046042765702
1742986058.950728,0.0014020444634013727
1742986058.952681,0.0018203499103009594
1742986058.954634,0.001669375300730304
1742986058.956587,0.0014241617628926154
1742986058.9585397,0.0013222298608894978
1742986058.9604928,0.001690530978504536
1742986058.9624457,0.0017011088173916518
1742986058.9643989,0.001462626631573037
1742986058.966352,0.0019338212729082035
1742986058.9683049,0.0016712985441643252
1742986058.970258,0.0014953217699513954
1742986058.972211,0.0015145542042916064
1742986058.974164,0.0014693579835921109
1742986058.976117,0.0014501255492519
1742986058.97807,0.0014895520396493323
1742986058.9800227,0.0016328336754839034
1742986058.9819758,0.0016876461133535044
1742986058.983929,0.0016347569189179242
1742986058.9858818,0.001471281227026132
1742986058.987835,0.001372234190174046
1742986058.9897878,0.0013731958118910566
1742986058.991741,0.0016011001588225554
1742986058.993694,0.0015030147436874799
1742986058.995647,0.0013991595982503413
1742986058.9976,0.001676106652749378
1742986058.999553,0.0018049639628287906
1742986059.0015059,0.0016828380047684518
1742986059.0034587,0.00167995313961742
1742986059.0054119,0.0016472580012390613
1742986059.0073647,0.0015443644775189334
1742986059.0093179,0.0014078141937034362
1742986059.011271,0.0014347396017797313
1742986059.013224,0.0015934071850864711
1742986059.015177,0.001643411514371019
1742986059.01713,0.0013578098644188878
1742986059.019083,0.0012404920149436014
1742986059.0210357,0.0012558779624157702
1742986059.0229888,0.0015972536719545134
1742986059.024942,0.001667452057296283
1742986059.0268948,0.0015453260992359438
1742986059.028848,0.0016107163759926607
1742986059.0308008,0.0016578358401261775
1742986059.032754,0.0017088017911277363
1742986059.0347068,0.001578982859331313
1742986059.03666,0.0013943514896652884
1742986059.038613,0.0014510871709689105
1742986059.040566,0.0016934158436555675
1742986059.0425189,0.001780923419903527
1742986059.0444717,0.0017386120643550632
1742986059.0464249,0.001511669339140575
1742986059.0483778,0.0014664731184410792
1742986059.0503309,0.0014539720361199423
1742986059.052284,0.001384735272495183
1742986059.054237,0.0014828206876302584
1742986059.05619,0.00148570555278129
1742986059.058143,0.0016876461133535044
1742986059.060096,0.0016636055704282407
1742986059.0620487,0.0016530277315411248
1742986059.0640018,0.0014664731184410792
1742986059.065955,0.0015520574512550176
1742986059.0679078,0.0018501601835282863
1742986059.069861,0.0014703196053091215
1742986059.0718138,0.0014376244669307631
1742986059.073767,0.00143281635834571
1742986059.0757198,0.0014405093320817945
1742986059.077673,0.0014924369048003642
1742986059.079626,0.0015539806946890387
1742986059.081579,0.0017078401694107256
1742986059.0835319,0.0016212942148797769
1742986059.0854847,0.0015328250169148068
1742986059.0874379,0.0014414709537988052
1742986059.0893908,0.0016828380047684518
1742986059.0913439,0.0014732044704601531
1742986059.093297,0.001692454221938557
1742986059.09525,0.0014106990588544678
1742986059.097203,0.0015414796123679015
1742986059.099156,0.0015328250169148068
1742986059.101109,0.001511669339140575
1742986059.103062,0.0015135925825745958
1742986059.1050148,0.0016664904355792722
1742986059.106968,0.0017693839592994006
1742986059.1089208,0.0016664904355792722
1742986059.110874,0.00159148394165245
1742986059.1128268,0.0017126482779957783
1742986059.11478,0.0016155244845777134
1742986059.1167328,0.001452048792685921
1742986059.118686,0.0014972450133854168
1742986059.120639,0.0016722601658813356
1742986059.122592,0.0017078401694107256
1742986059.124545,0.001529940151763775
1742986059.1264977,0.0014722428487431423
1742986059.1284509,0.001660720705277209
1742986059.1304038,0.001726110982033926
1742986059.132357,0.0016703369224473144
1742986059.13431,0.00164437313608803
1742986059.136263,0.001405890950269415
1742986059.138216,0.0012847266139260863
1742986059.140169,0.0014789742007622162
1742986059.142122,0.0016193709714457556
1742986059.144075,0.0017059169259767048
1742986059.1460278,0.0016337952972009138
1742986059.1479807,0.0015924455633694603
1742986059.1499338,0.0016251407017478189
1742986059.151887,0.0017434201729401159
1742986059.1538398,0.001728034225467947
1742986059.155793,0.0016318720537668926
1742986059.1577458,0.0016136012411436926
1742986059.159699,0.0013741574336080672
1742986059.1616518,0.0013645412164379619
1742986059.163605,0.001329922834625582
1742986059.165558,0.0014914752830833533
1742986059.1675107,0.0017857315284885798
1742986059.1694639,0.0018222731537349804
1742986059.1714168,0.001759767742129295
1742986059.17337,0.0016770682744663883
1742986059.1753228,0.0016645671921452514
1742986059.177276,0.0015991769153885342
1742986059.179229,0.0015818677244823446
1742986059.181182,0.001488590417932322
1742986059.183135,0.0014443558189498366
1742986059.185088,0.0015030147436874799
1742986059.1870408,0.0015895606982184289
1742986059.1889937,0.0016136012411436926
1742986059.1909468,0.0015376331254998595
1742986059.1929,0.0016511044881071036
1742986059.1948528,0.0018299661274710647
1742986059.196806,0.001612639619426682
1742986059.1987588,0.001559750424991102
1742986059.200712,0.001612639619426682
1742986059.2026649,0.0016097547542756503
1742986059.204618,0.0016155244845777134
1742986059.206571,0.0015780212376143023
1742986059.2085238,0.001534748260348828
1742986059.2104769,0.0014491639275348897
1742986059.2124298,0.0015674433987271864
1742986059.214383,0.0016424498926540087
1742986059.2163358,0.0016030234022565764
1742986059.218289,0.0015770596158972917
1742986059.220242,0.0014991682568194376
1742986059.222195,0.0014539720361199423
1742986059.224148,0.0014337779800627209
1742986059.226101,0.0015510958295380072
1742986059.228054,0.0016097547542756503
1742986059.2300067,0.0015674433987271864
1742986059.2319598,0.0017097634128447469
1742986059.233913,0.001770345581016411
1742986059.2358658,0.001669375300730304
1742986059.237819,0.001650142866390093
1742986059.2397718,0.0016280255668988505
1742986059.241725,0.0015799444810483234
1742986059.2436779,0.001458780144704995
1742986059.245631,0.0013837736507781725
1742986059.247584,0.0013116520220023816
1742986059.249537,0.0013933898679482778
1742986059.2514899,0.0016232174583137979
1742986059.2534428,0.0017482282815251685
1742986059.255396,0.0020559472309685423
1742986059.2573488,0.0017434201729401159
1742986059.259302,0.0016193709714457556
1742986059.261255,0.0015280169083297542
1742986059.263208,0.0014837823093472688
1742986059.265161,0.0014837823093472688
1742986059.267114,0.0016289871886158611
1742986059.269067,0.0016847612482024726
1742986059.2710197,0.0016645671921452514
1742986059.2729728,0.001605908267407608
1742986059.2749257,0.00160879313255864
1742986059.2768788,0.0016174477280117346
1742986059.278832,0.0016395650275029768
1742986059.2807848,0.0015982152936715238
1742986059.282738,0.0015587888032740915
1742986059.2846909,0.001559750424991102
1742986059.286644,0.001607831510841629
1742986059.288597,0.001582829346199355
1742986059.29055,0.0015732131290292495
1742986059.2925029,0.0016193709714457556
1742986059.2944558,0.0016424498926540087
1742986059.296409,0.001650142866390093
1742986059.2983618,0.0015934071850864711
1742986059.300315,0.0013837736507781725
1742986059.3022678,0.001271263909887939
1742986059.304221,0.0012299141760564855
1742986059.306174,0.0013751190553250774
1742986059.308127,0.0016011001588225554
1742986059.31008,0.0018261196406030224
1742986059.3120327,0.001800155854243738
1742986059.3139858,0.0018347742360561175
1742986059.3159387,0.0017414969295060949
1742986059.3178918,0.0016809147613344305
1742986059.319845,0.0016684136790132934
1742986059.3217978,0.0016347569189179242
1742986059.323751,0.0016549509749751456
1742986059.3257039,0.0016780298961833987
1742986059.327657,0.0015780212376143023
1742986059.3296099,0.0015135925825745958
1742986059.331563,0.0015587888032740915
1742986059.333516,0.0015693666421612072
1742986059.3354688,0.001481859065913248
1742986059.337422,0.0015251320431787223
1742986059.3393748,0.0015010915002534589
1742986059.341328,0.0016511044881071036
1742986059.3432808,0.0016953390870895887
1742986059.345234,0.001703032060825673
1742986059.347187,0.0016655288138622618
1742986059.34914,0.0016626439487112301
1742986059.351093,0.0016780298961833987
1742986059.353046,0.0017078401694107256
1742986059.3549988,0.0016857228699194832
1742986059.3569517,0.001669375300730304
1742986059.3589048,0.0016491812446730826
1742986059.360858,0.001602061780539566
1742986059.3628109,0.00153859474721687
1742986059.364764,0.0014828206876302584
1742986059.3667169,0.0014222385194585943
1742986059.36867,0.0013693493250230145
1742986059.3706229,0.001435701223496742
1742986059.372576,0.0012683790447369071
1742986059.3745291,0.0016164861062947242
1742986059.3764818,0.001837659101207149
1742986059.378435,0.0018241963971690016
1742986059.3803878,0.0018136185582818855
1742986059.382341,0.0017915012587906432
1742986059.3842938,0.001713609899712789
1742986059.386247,0.0016789915179004095
1742986059.3882,0.001643411514371019
1742986059.390153,0.0016261023234648295
1742986059.392106,0.0015809061027653338
1742986059.394059,0.001435701223496742
1742986059.3960118,0.001418392032590552
1742986059.3979647,0.0015501342078209964
1742986059.3999178,0.0015664817770101758
1742986059.401871,0.0016684136790132934
1742986059.4038239,0.0017818850416205375
1742986059.405777,0.001740535307789084
1742986059.4077299,0.0016886077350705148
1742986059.409683,0.0016424498926540087
1742986059.4116359,0.0016261023234648295
1742986059.413589,0.0015837909679163656
1742986059.4155421,0.0016232174583137979
1742986059.4174948,0.0014789742007622162
1742986059.419448,0.0014049293285524043
1742986059.4214008,0.0013491552689657929
1742986059.423354,0.0015982152936715238
1742986059.4253068,0.001681876383051441
1742986059.42726,0.0016116779977096713
1742986059.429213,0.0014895520396493323
1742986059.431166,0.0014789742007622162
1742986059.433119,0.0014828206876302584
1742986059.435072,0.0015732131290292495
1742986059.4370248,0.001787654771922601
1742986059.4389777,0.0018703542395855078
1742986059.4409308,0.0017626526072803265
1742986059.4428837,0.0016712985441643252
1742986059.4448369,0.0016136012411436926
1742986059.44679,0.0016251407017478189
1742986059.4487429,0.0017078401694107256
1742986059.450696,0.001692454221938557
1742986059.4526489,0.0016943774653725783
1742986059.454602,0.0016934158436555675
1742986059.456555,0.0016549509749751456
1742986059.4585078,0.001660720705277209
1742986059.460461,0.001646296379522051
1742986059.4624138,0.0015982152936715238
1742986059.464367,0.0014164687891565309
1742986059.4663198,0.0013770422987590986
1742986059.468273,0.0014924369048003642
1742986059.4702258,0.0017674607158653791
1742986059.472179,0.0016722601658813356
1742986059.474132,0.00162706394518184
1742986059.476085,0.0015674433987271864
1742986059.478038,0.0015193623128766593
1742986059.4799907,0.0014558952795539631
1742986059.4819438,0.0015357098820658385
1742986059.4838967,0.0015414796123679015
1742986059.4858499,0.0015030147436874799
1742986059.487803,0.0015443644775189334
1742986059.4897559,0.0014376244669307631
1742986059.491709,0.0013241531043235186
1742986059.4936619,0.0013597331078529092
1742986059.495615,0.0012885731007941286
1742986059.497568,0.0014155071674395205
1742986059.499521,0.001770345581016411
1742986059.501474,0.0019376677597762457
1742986059.5034268,0.0018405439663581808
1742986059.50538,0.0018809320784726239
1742986059.5073328,0.0018588147789813812
1742986059.509286,0.0017549596335442424
1742986059.5112388,0.0016963007088065991
1742986059.513192,0.0016837996264854622
1742986059.515145,0.0016482196229560722
1742986059.517098,0.0016212942148797769
1742986059.519051,0.0016039850239735868
1742986059.5210037,0.0015943688068034815
1742986059.5229568,0.001515515826008617
1742986059.5249097,0.0014962833916684062
1742986059.5268629,0.001673221787598346
1742986059.528816,0.0017607293638463057
1742986059.5307689,0.0017357271992040314
1742986059.532722,0.0016895693567875252
1742986059.534675,0.0016982239522406203
1742986059.536628,0.0016347569189179242
1742986059.538581,0.0015943688068034815
1742986059.540534,0.0016193709714457556
1742986059.5424867,0.0016453347578050403
1742986059.5444398,0.0016780298961833987
1742986059.546393,0.0016530277315411248
1742986059.5483458,0.00160879313255864
1742986059.550299,0.0013203066174554765
1742986059.5522518,0.0012327990412075171
1742986059.554205,0.0014482023058178788
1742986059.556158,0.001699185573957631
1742986059.558111,0.0016030234022565764
1742986059.560064,0.0016251407017478189
1742986059.5620167,0.001780923419903527
1742986059.5639699,0.0017818850416205375
1742986059.5659227,0.001699185573957631
1742986059.5678759,0.0017578444986952738
1742986059.5698287,0.0018366974794901385
1742986059.5717819,0.0017559212552612528
1742986059.573735,0.0016770682744663883
1742986059.575688,0.0016559125966921565
1742986059.577641,0.0017443817946571263
1742986059.579594,0.001669375300730304
1742986059.581547,0.0015222471780276907
1742986059.5834997,0.0016184093497287452
1742986059.5854528,0.0017790001764695059
1742986059.587406,0.0016520661098241142
1742986059.5893588,0.001504937987121501
1742986059.591312,0.001584752589633376
1742986059.5932648,0.0016280255668988505
1742986059.595218,0.0016828380047684518
1742986059.5971708,0.0016482196229560722
1742986059.599124,0.0016491812446730826
1742986059.601077,0.001704955304259694
1742986059.60303,0.001704955304259694
1742986059.6049829,0.0016328336754839034
1742986059.6069357,0.00160879313255864
1742986059.6088889,0.0015732131290292495
1742986059.6108418,0.0015885990765014183
1742986059.6127949,0.0016357185406349348
1742986059.614748,0.0016203325931627662
1742986059.616701,0.0015905223199354395
1742986059.618654,0.001435701223496742
1742986059.620607,0.001329922834625582
1742986059.62256,0.0014241617628926154
1742986059.624513,0.0016001385371055448
1742986059.6264658,0.0016876461133535044
1742986059.628419,0.0016366801623519456
1742986059.6303718,0.0012770336401900023
1742986059.632325,0.0011789482250549267
1742986059.6342778,0.001403967706835394
1742986059.636231,0.0018963180259447922
1742986059.6381838,0.0017511131466762002
1742986059.640137,0.0015934071850864711
1742986059.64209,0.001517439069442638
1742986059.644043,0.0016520661098241142
1742986059.6459959,0.0017491899032421791
1742986059.6479487,0.001726110982033926
1742986059.6499019,0.0015337866386318172
1742986059.6518548,0.0015145542042916064
1742986059.6538079,0.001524170421461712
1742986059.655761,0.0016770682744663883
1742986059.657714,0.0016780298961833987
1742986059.659667,0.0017443817946571263
1742986059.66162,0.0016876461133535044
1742986059.663573,0.0016241790800308085
1742986059.665526,0.0014808974441962374
1742986059.6674788,0.0013991595982503413
1742986059.669432,0.0014164687891565309
1742986059.6713848,0.0016309104320498822
1742986059.673338,0.0017693839592994006
1742986059.6752908,0.0017068785476937152
1742986059.677244,0.0015799444810483234
1742986059.6791968,0.0014655114967240688
1742986059.68115,0.0014972450133854168
1742986059.683103,0.0016597590835601987
1742986059.685056,0.0017001471956746414
1742986059.6870089,0.00162706394518184
1742986059.6889617,0.0015991769153885342
1742986059.6909149,0.0016289871886158611
1742986059.6928678,0.00160879313255864
1742986059.694821,0.0016943774653725783
1742986059.696774,0.001605908267407608
1742986059.698727,0.0016289871886158611
1742986059.70068,0.0016616823269942195
1742986059.702633,0.0016337952972009138
1742986059.704586,0.0014847439310642797
1742986059.706539,0.0014770509573281954
1742986059.7084918,0.0016299488103328715
1742986059.7104447,0.0016587974618431879
1742986059.7123978,0.0015568655598400703
1742986059.714351,0.0015039763654044905
1742986059.7163038,0.0015732131290292495
1742986059.718257,0.001561673668425123
1742986059.7202098,0.0015318633951977962
1742986059.722163,0.0014203152760245731
1742986059.724116,0.0013289612129085717
1742986059.726069,0.0013549249992678562
1742986059.728022,0.00167995313961742
1742986059.7299747,0.0016934158436555675
1742986059.7319279,0.0016424498926540087
1742986059.7338808,0.0016549509749751456
1742986059.735834,0.0015760979941802811
1742986059.7377868,0.0014001212199673517
1742986059.73974,0.0013414622952297086
1742986059.741693,0.0013356925649276451
1742986059.743646,0.0014472406841008684
1742986059.745599,0.0016232174583137979
1742986059.747552,0.0017270726037509367
1742986059.749505,0.0017309190906189787
1742986059.7514577,0.0016703369224473144
1742986059.7534108,0.0016184093497287452
1742986059.755364,0.0015799444810483234
1742986059.7573168,0.001582829346199355
1742986059.75927,0.0015684050204441968
1742986059.7612228,0.0015837909679163656
1742986059.763176,0.0016107163759926607
1742986059.7651289,0.0015741747507462603
1742986059.767082,0.001572251507312239
1742986059.769035,0.0015405179906508911
1742986059.7709877,0.0015318633951977962
1742986059.7729409,0.0014722428487431423
1742986059.7748938,0.0015309017734807858
1742986059.776847,0.0015866758330673972
1742986059.7787998,0.0015962920502375025
1742986059.780753,0.0015058996088385115
1742986059.782706,0.0015097460957065538
1742986059.784659,0.0016136012411436926
1742986059.786612,0.0016895693567875252
1742986059.788565,0.001692454221938557
1742986059.790518,0.0016318720537668926
1742986059.7924707,0.0015857142113503868
1742986059.7944238,0.0016251407017478189
1742986059.796377,0.001488590417932322
1742986059.7983298,0.0014212768977415835
1742986059.800283,0.0014751277138941741
1742986059.8022358,0.001646296379522051
1742986059.804189,0.0016424498926540087
1742986059.8061419,0.0015587888032740915
1742986059.808095,0.0015097460957065538
1742986059.810048,0.001471281227026132
1742986059.8120008,0.001578982859331313
1742986059.8139539,0.0015655201552931652
1742986059.8159068,0.0016193709714457556
1742986059.81786,0.0016241790800308085
1742986059.8198128,0.0016184093497287452
1742986059.821766,0.001524170421461712
1742986059.823719,0.0015001298785364485
1742986059.825672,0.0015414796123679015
1742986059.827625,0.0015818677244823446
1742986059.829578,0.0015578271815570807
1742986059.831531,0.0015405179906508911
1742986059.8334837,0.0015395563689338807
1742986059.8354368,0.0015780212376143023
1742986059.8373897,0.001572251507312239
1742986059.8393428,0.0015501342078209964
1742986059.841296,0.0016164861062947242
1742986059.8432488,0.0016645671921452514
1742986059.845202,0.0016857228699194832
1742986059.8471549,0.0016366801623519456
1742986059.849108,0.0015635969118591442
1742986059.851061,0.0014568569012709737
1742986059.853014,0.0014760893356111845
1742986059.8549669,0.0016357185406349348
1742986059.8569198,0.0017607293638463057
1742986059.858873,0.0017511131466762002
1742986059.8608258,0.0016645671921452514
1742986059.862779,0.0016203325931627662
1742986059.8647318,0.0015712898855952285
1742986059.866685,0.0014732044704601531
1742986059.868638,0.0015184006911596484
1742986059.870591,0.0015943688068034815
1742986059.872544,0.0017818850416205375
1742986059.874497,0.001667452057296283
1742986059.8764498,0.0017463050380911475
1742986059.8784027,0.0017886163936396114
1742986059.8803558,0.0018059255845458012
1742986059.882309,0.001704955304259694
1742986059.8842618,0.0016549509749751456
1742986059.886215,0.001612639619426682
1742986059.8881679,0.00155590393812306
1742986059.890121,0.0015318633951977962
1742986059.8920739,0.0015549423164060493
1742986059.894027,0.0016001385371055448
1742986059.89598,0.0016337952972009138
1742986059.8979328,0.001607831510841629
1742986059.899886,0.0015587888032740915
1742986059.9018388,0.0015164774477256276
1742986059.903792,0.0015366715037828489
1742986059.9057448,0.0015434028558019227
1742986059.907698,0.0015645585335761546
1742986059.909651,0.0015578271815570807
1742986059.911604,0.0015328250169148068
1742986059.913557,0.0015587888032740915
1742986059.91551,0.0016174477280117346
1742986059.9174628,0.0017251493603169155
1742986059.9194157,0.001728034225467947
1742986059.9213688,0.001728034225467947
1742986059.923322,0.0017203412517318628
1742986059.9252748,0.001711686656278768
1742986059.927228,0.0017299574689019683
1742986059.9291809,0.0017145715214297995
1742986059.931134,0.0016616823269942195
1742986059.9330869,0.0016222558365967873
1742986059.93504,0.0015799444810483234
1742986059.936993,0.0015953304285204921
1742986059.9389458,0.0016347569189179242
1742986059.940899,0.0016559125966921565
1742986059.9428518,0.0016001385371055448
1742986059.944805,0.0015712898855952285
1742986059.9467578,0.0016068698891246187
1742986059.948711,0.001793424502224664
1742986059.950664,0.001916512082002014
1742986059.952617,0.0018645845092834443
1742986059.95457,0.001848236940094265
1742986059.956523,0.0017866931502055902
1742986059.9584758,0.0017068785476937152
1742986059.9604287,0.0016559125966921565
1742986059.9623818,0.0016770682744663883
1742986059.964335,0.0017338039557700106
1742986059.9662879,0.0016972623305236097
1742986059.968241,0.0016837996264854622
1742986059.9701939,0.0016828380047684518
1742986059.972147,0.0016664904355792722
1742986059.9740999,0.0016597590835601987
1742986059.976053,0.0016597590835601987
1742986059.9780061,0.0016828380047684518
1742986059.9799588,0.0017097634128447469
1742986059.981912,0.0017193796300148522
1742986059.9838648,0.0017203412517318628
1742986059.985818,0.0017241877385999048
1742986059.9877708,0.0017424585512231053
1742986059.989724,0.0017097634128447469
1742986059.991677,0.0016809147613344305
1742986059.99363,0.0016222558365967873
1742986059.995583,0.0015578271815570807
1742986059.997536,0.0015164774477256276
1742986059.999489,0.0015712898855952285
1742986060.0014417,0.0017299574689019683
1742986060.0033948,0.0017184180082978418
1742986060.0053477,0.0016309104320498822
1742986060.0073009,0.001637641784068956
1742986060.009254,0.0017386120643550632
1742986060.0112069,0.0019694012764375937
1742986060.01316,0.0019674780330035725
1742986060.0151129,0.0018934331607937608
1742986060.017066,0.0018366974794901385
1742986060.0190191,0.0018472753183772547
1742986060.0209718,0.0018011174759607485
1742986060.022925,0.0017732304461674428
1742986060.0248778,0.0017693839592994006
1742986060.026831,0.0018088104496968328
1742986060.0287838,0.0018453520749432334
1742986060.030737,0.0018530450486793177
1742986060.0326898,0.0018309277491880755
1742986060.034643,0.0018078488279798224
1742986060.036596,0.0018309277491880755
1742986060.038549,0.001846313696660244
1742986060.040502,0.0018770855916045816
1742986060.0424547,0.0018597764006983916
1742986060.0444078,0.0018309277491880755
1742986060.0463607,0.001842467209792202
1742986060.0483139,0.001878047213321592
1742986060.050267,0.0018713158613025182
1742986060.0522199,0.0018395823446411702
1742986060.054173,0.0018107336931308538
1742986060.0561259,0.0018213115320179698
1742986060.058079,0.0018184266668669381
1742986060.060032,0.0018136185582818855
1742986060.0619848,0.0018097720714138432
1742986060.063938,0.001766499094148369
1742986060.0658908,0.0017270726037509367
1742986060.067844,0.001726110982033926
1742986060.0697968,0.0018405439663581808
1742986060.07175,0.0018857401870576765
1742986060.0737028,0.001860738022415402
1742986060.075656,0.0018953564042277818
1742986060.077609,0.001916512082002014
1742986060.079562,0.001837659101207149
1742986060.081515,0.0018030407193947693
1742986060.0834677,0.0018636228875664339
1742986060.0854208,0.001932859651191193
1742986060.0873737,0.0019847872239097623
1742986060.0893269,0.0019828639804757415
1742986060.09128,0.002002096414815952
1742986060.0932329,0.002012674253703068
1742986060.095186,0.002025175336024205
1742986060.097139,0.002038638040062353
1742986060.099092,0.0020030580365329627
1742986060.101045,0.002023252092590184
1742986060.102998,0.0019636315461355304
1742986060.1049507,0.0019347828946252139
1742986060.1069038,0.0019232434340210873
1742986060.108857,0.001964593167852541
1742986060.1108098,0.001991518575928836
1742986060.112763,0.0019972883062308994
1742986060.1147158,0.0020184439840051313
1742986060.116669,0.0020136358754200786
1742986060.118622,0.0020097893885520366
1742986060.120575,0.0020040196582499733
1742986060.122528,0.002017482362288121
1742986060.124481,0.002058832096119574
1742986060.1264338,0.002045369392081427
1742986060.1283867,0.002017482362288121
1742986060.1303399,0.001995365062796878
1742986060.1322927,0.001901126134529845
1742986060.1342459,0.0016876461133535044
1742986060.136199,0.0017088017911277363
1742986060.138152,0.0017991942325267273
1742986060.140105,0.0021194142642912387
1742986060.142058,0.002130953724895365
1742986060.144011,0.002058832096119574
1742986060.1459637,0.0019492072203803723
1742986060.1479168,0.0018809320784726239
1742986060.14987,0.001943437490078309
1742986060.1518228,0.0021069131819701015
1742986060.153776,0.0021867277844819766
1742986060.1557288,0.0021011434516680382
1742986060.157682,0.0020569088526855533
1742986060.1596348,0.002072294800157722
1742986060.161588,0.0020790261521767953
1742986060.163541,0.0020857575041958692
1742986060.165494,0.0020434461486474056
1742986060.1674469,0.002031906688043279
1742986060.1693997,0.0020280602011752366
1742986060.1713529,0.002046331013798437
1742986060.1733057,0.0021040283168190697
1742986060.1752589,0.0021001818299510276
1742986060.177212,0.00212229912944227
1742986060.179165,0.002090565612780922
1742986060.181118,0.002054985609251532
1742986060.183071,0.0020203672274391525
1742986060.185024,0.0020328683097602896
1742986060.1869767,0.0019761326284566676
1742986060.1889298,0.0019126655951339716
1742986060.190883,0.0018943947825107712
1742986060.1928358,0.0018953564042277818
1742986060.194789,0.001915550460285003
1742986060.1967418,0.0018790088350386024
1742986060.198695,0.0018588147789813812
1742986060.2006478,0.0018434288315092124
1742986060.202601,0.0018578531572643706
1742986060.204554,0.0018309277491880755
1742986060.206507,0.0017991942325267273
1742986060.2084599,0.001728034225467947
1742986060.2104127,0.0016943774653725783
1742986060.2123659,0.001711686656278768
1742986060.2143188,0.0017568828769782636
1742986060.2162719,0.0018068872062628116
1742986060.218225,0.001703032060825673
1742986060.220178,0.001637641784068956
1742986060.222131,0.0016943774653725783
1742986060.224084,0.001823234775451991
1742986060.226037,0.0019001645128128345
1742986060.22799,0.001860738022415402
1742986060.2299428,0.0019068958648319082
1742986060.231896,0.0019107423516999504
1742986060.2338488,0.0019030493779638661
1742986060.235802,0.0018943947825107712
1742986060.2377548,0.0018684309961514865
1742986060.239708,0.0018616996441324129
1742986060.2416608,0.0018366974794901385
1742986060.243614,0.0017991942325267273
1742986060.245567,0.0017886163936396114
1742986060.24752,0.0017799617981865167
1742986060.249473,0.0017818850416205375
1742986060.2514257,0.0017857315284885798
1742986060.2533789,0.001770345581016411
1742986060.2553318,0.0017626526072803265
1742986060.2572849,0.0017588061204122844
1742986060.259238,0.001766499094148369
1742986060.261191,0.0017530363901102212
1742986060.263144,0.0017838082850545587
1742986060.265097,0.0017838082850545587
1742986060.26705,0.0017866931502055902
1742986060.269003,0.0017790001764695059
1742986060.2709558,0.0017443817946571263
1742986060.2729087,0.0017607293638463057
1742986060.2748618,0.001764575850714348
1742986060.276815,0.0017616909855633163
1742986060.2787678,0.0017713072027334216
1742986060.280721,0.0017578444986952738
1742986060.2826738,0.0017732304461674428
1742986060.284627,0.0017828466633375481
1742986060.28658,0.0018049639628287906
1742986060.288533,0.0018559299138303494
1742986060.290486,0.0018540066703963286
1742986060.2924387,0.001766499094148369
1742986060.2943919,0.0016636055704282407
1742986060.2963448,0.0016405266492199877
1742986060.298298,0.0015962920502375025
1742986060.3002508,0.0016097547542756503
1742986060.302204,0.001681876383051441
1742986060.304157,0.0017078401694107256
1742986060.30611,0.0017020704391086626
1742986060.308063,0.0016645671921452514
1742986060.310016,0.0016770682744663883
1742986060.3119688,0.0016828380047684518
1742986060.3139217,0.001734765577487021
1742986060.3158748,0.0017578444986952738
1742986060.317828,0.001764575850714348
1742986060.3197808,0.0017568828769782636
1742986060.321734,0.001728034225467947
1742986060.3236868,0.0017434201729401159
1742986060.32564,0.0017530363901102212
1742986060.3275928,0.0017491899032421791
1742986060.329546,0.0017674607158653791
1742986060.331499,0.001823234775451991
1742986060.3334517,0.0018136185582818855
1742986060.3354049,0.0017790001764695059
1742986060.3373578,0.0017722688244504322
1742986060.339311,0.0017799617981865167
1742986060.3412638,0.0017578444986952738
1742986060.343217,0.001745343416374137
1742986060.34517,0.0017713072027334216
1742986060.347123,0.0017588061204122844
1742986060.349076,0.0017713072027334216
1742986060.351029,0.001766499094148369
1742986060.352982,0.001763614228997337
1742986060.3549347,0.0017568828769782636
1742986060.3568878,0.0017386120643550632
1742986060.358841,0.0017539980118272318
1742986060.3607938,0.0017790001764695059
1742986060.362747,0.0017799617981865167
1742986060.3646998,0.0017991942325267273
1742986060.366653,0.0018088104496968328
1742986060.3686059,0.0017559212552612528
1742986060.370559,0.0017328423340529997
1742986060.372512,0.0017107250345617575
1742986060.374465,0.001711686656278768
1742986060.3764179,0.0017184180082978418
1742986060.3783708,0.0017424585512231053
1742986060.380324,0.0017424585512231053
1742986060.3822768,0.0017357271992040314
1742986060.38423,0.0017395736860720736
1742986060.386183,0.0016895693567875252
1742986060.388136,0.0016347569189179242
1742986060.390089,0.0015895606982184289
1742986060.392042,0.001614562862860703
1742986060.393995,0.0016568742184091669
1742986060.3959477,0.0017309190906189787
1742986060.3979008,0.0017530363901102212
1742986060.3998537,0.0017270726037509367
1742986060.4018068,0.001704955304259694
1742986060.40376,0.001667452057296283
1742986060.4057128,0.0016809147613344305
1742986060.407666,0.0016636055704282407
1742986060.4096189,0.0016068698891246187
1742986060.411572,0.0015818677244823446
1742986060.413525,0.0015799444810483234
1742986060.415478,0.0016770682744663883
1742986060.4174309,0.0016886077350705148
1742986060.4193838,0.0016914926002215465
1742986060.421337,0.001692454221938557
1742986060.4232898,0.0016722601658813356
1742986060.425243,0.0016511044881071036
1742986060.4271958,0.001637641784068956
1742986060.429149,0.0015962920502375025
1742986060.431102,0.0016174477280117346
1742986060.433055,0.0016261023234648295
1742986060.435008,0.0016011001588225554
1742986060.4369607,0.001570328263878218
1742986060.4389138,0.0015885990765014183
1742986060.4408667,0.00159148394165245
1742986060.4428198,0.0016626439487112301
1742986060.444773,0.0016414882709369983
1742986060.4467258,0.0016405266492199877
1742986060.448679,0.0016299488103328715
1742986060.4506319,0.0015943688068034815
1742986060.452585,0.0015818677244823446
1742986060.4545379,0.0015866758330673972
1742986060.456491,0.0016155244845777134
1742986060.4584439,0.0016184093497287452
1742986060.4603968,0.0015741747507462603
1742986060.46235,0.0015626352901421338
1742986060.4643028,0.0016107163759926607
1742986060.466256,0.0015866758330673972
1742986060.4682088,0.00155590393812306
1742986060.470162,0.0015837909679163656
1742986060.472115,0.0016578358401261775
1742986060.474068,0.0016587974618431879
1742986060.476021,0.0015510958295380072
1742986060.477974,0.0014866671744983007
1742986060.4799268,0.0015010915002534589
1742986060.4818797,0.0016001385371055448
1742986060.4838328,0.0016780298961833987
1742986060.485786,0.001646296379522051
1742986060.4877388,0.001614562862860703
1742986060.489692,0.0016068698891246187
1742986060.4916449,0.0016097547542756503
1742986060.493598,0.0016030234022565764
1742986060.4955509,0.0015924455633694603
1742986060.497504,0.0015857142113503868
1742986060.4994571,0.0015520574512550176
1742986060.5014098,0.0015270552866127436
1742986060.503363,0.0015222471780276907
1742986060.5053158,0.0015405179906508911
1742986060.507269,0.0015270552866127436
1742986060.5092218,0.0015520574512550176
1742986060.511175,0.0015203239345936697
1742986060.513128,0.001526093664895733
1742986060.515081,0.0015453260992359438
1742986060.517034,0.0015760979941802811
1742986060.518987,0.001570328263878218
1742986060.5209398,0.0015770596158972917
1742986060.5228927,0.0015482109643869754
1742986060.5248458,0.0015366715037828489
1742986060.526799,0.0015135925825745958
1742986060.5287519,0.0015751363724632707
1742986060.530705,0.0015962920502375025
1742986060.5326579,0.0015924455633694603
1742986060.534611,0.0015539806946890387
1742986060.5365639,0.0015405179906508911
1742986060.538517,0.001584752589633376
1742986060.5404701,0.0015934071850864711
1742986060.5424228,0.0015876374547844076
1742986060.544376,0.001570328263878218
1742986060.5463288,0.0015760979941802811
1742986060.548282,0.0016193709714457556
1742986060.5502348,0.0016357185406349348
1742986060.552188,0.0016386034057859664
1742986060.554141,0.0015799444810483234
1742986060.556094,0.0015443644775189334
1742986060.558047,0.0015318633951977962
1742986060.56,0.0015164774477256276
1742986060.5619528,0.0015357098820658385
1742986060.5639057,0.0015587888032740915
1742986060.5658588,0.0015645585335761546
1742986060.5678117,0.0015972536719545134
1742986060.5697649,0.0016174477280117346
1742986060.571718,0.0016241790800308085
1742986060.5736709,0.001605908267407608
1742986060.575624,0.001547249342669965
1742986060.5775769,0.001511669339140575
1742986060.57953,0.0015068612305555221
1742986060.5814831,0.0015453260992359438
1742986060.5834358,0.0015751363724632707
1742986060.585389,0.0015635969118591442
1742986060.5873418,0.001515515826008617
1742986060.589295,0.0014972450133854168
1742986060.5912478,0.0014905136613663427
1742986060.593201,0.0014962833916684062
1742986060.5951538,0.0015039763654044905
1742986060.597107,0.00148570555278129
1742986060.59906,0.0014530104144029317
1742986060.601013,0.0014241617628926154
1742986060.602966,0.00159148394165245
1742986060.6049187,0.0017193796300148522
1742986060.6068718,0.0016289871886158611
1742986060.6088247,0.0016107163759926607
1742986060.6107779,0.0015962920502375025
1742986060.612731,0.0015818677244823446
1742986060.6146839,0.0015549423164060493
1742986060.616637,0.001549172586103986
1742986060.6185899,0.0015539806946890387
1742986060.620543,0.0015520574512550176
1742986060.622496,0.0015857142113503868
1742986060.624449,0.0015741747507462603
1742986060.626402,0.0015626352901421338
1742986060.6283548,0.001561673668425123
1742986060.630308,0.0015549423164060493
1742986060.6322608,0.0015280169083297542
1742986060.634214,0.0015357098820658385
1742986060.6361668,0.0015424412340849121
1742986060.63812,0.0015482109643869754
1742986060.640073,0.0015087844739895431
1742986060.642026,0.001517439069442638
1742986060.643979,0.0015462877209529542
1742986060.6459317,0.0015626352901421338
1742986060.6478848,0.001602061780539566
1742986060.6498377,0.0015943688068034815
1742986060.6517909,0.0015953304285204921
1742986060.653744,0.0015837909679163656
1742986060.6556969,0.0015809061027653338
1742986060.65765,0.001584752589633376
1742986060.6596029,0.0015732131290292495
1742986060.661556,0.0015991769153885342
1742986060.663509,0.0015953304285204921
1742986060.665462,0.0015664817770101758
1742986060.6674147,0.001559750424991102
1742986060.6693678,0.0015655201552931652
1742986060.671321,0.0015760979941802811
1742986060.6732738,0.0015626352901421338
1742986060.675227,0.0015337866386318172
1742986060.6771798,0.0015135925825745958
1742986060.679133,0.001547249342669965
1742986060.681086,0.0015635969118591442
1742986060.683039,0.0015607120467081125
1742986060.684992,0.0015895606982184289
1742986060.6869447,0.0015664817770101758
1742986060.6888978,0.0015607120467081125
1742986060.6908507,0.001584752589633376
1742986060.6928039,0.0016164861062947242
1742986060.6947567,0.0016386034057859664
1742986060.6967099,0.0016587974618431879
1742986060.698663,0.0016299488103328715
1742986060.700616,0.00162706394518184
1742986060.702569,0.0016251407017478189
1742986060.704522,0.0016232174583137979
1742986060.706475,0.0016097547542756503
1742986060.7084277,0.001607831510841629
1742986060.7103808,0.0016299488103328715
1742986060.712334,0.0016030234022565764
1742986060.7142868,0.0015501342078209964
1742986060.71624,0.0015309017734807858
1742986060.7181928,0.001534748260348828
1742986060.720146,0.0016520661098241142
1742986060.7220988,0.0017184180082978418
1742986060.724052,0.0016770682744663883
1742986060.726005,0.0016789915179004095
1742986060.727958,0.0016280255668988505
1742986060.7299109,0.0016068698891246187
1742986060.7318637,0.0016222558365967873
1742986060.7338169,0.0016309104320498822
1742986060.7357697,0.0015895606982184289
1742986060.7377229,0.0015799444810483234
1742986060.739676,0.001602061780539566
1742986060.741629,0.0016068698891246187
1742986060.743582,0.0016559125966921565
1742986060.745535,0.0016587974618431879
1742986060.747488,0.001637641784068956
1742986060.749441,0.0016328336754839034
1742986060.7513938,0.0016453347578050403
1742986060.753347,0.0016914926002215465
1742986060.7552998,0.0017068785476937152
1742986060.757253,0.0016770682744663883
1742986060.7592058,0.0016347569189179242
1742986060.761159,0.0016318720537668926
1742986060.7631118,0.0016491812446730826
1742986060.765065,0.0016520661098241142
1742986060.767018,0.0016943774653725783
1742986060.768971,0.0016636055704282407
1742986060.7709239,0.0016482196229560722
1742986060.7728767,0.0016251407017478189
1742986060.7748299,0.0016616823269942195
1742986060.7767828,0.0017578444986952738
1742986060.7787359,0.0017568828769782636
1742986060.780689,0.0017395736860720736
1742986060.782642,0.001740535307789084
1742986060.784595,0.0017145715214297995
1742986060.786548,0.0017193796300148522
1742986060.788501,0.001726110982033926
1742986060.790454,0.001711686656278768
1742986060.7924068,0.0016963007088065991
1742986060.79436,0.0016876461133535044
1742986060.7963128,0.0016530277315411248
1742986060.798266,0.0016549509749751456
1742986060.8002188,0.0016963007088065991
1742986060.802172,0.001726110982033926
1742986060.8041248,0.0017155331431468101
1742986060.806078,0.001711686656278768
1742986060.808031,0.0017251493603169155
1742986060.809984,0.0017588061204122844
1742986060.8119369,0.0017001471956746414
1742986060.8138897,0.0017001471956746414
1742986060.8158429,0.0016655288138622618
1742986060.8177958,0.0016963007088065991
1742986060.8197489,0.001650142866390093
1742986060.821702,0.001699185573957631
1742986060.823655,0.0017991942325267273
1742986060.825608,0.0018434288315092124
1742986060.827561,0.001796309367375696
1742986060.829514,0.001780923419903527
1742986060.831467,0.0017626526072803265
1742986060.8334198,0.0017886163936396114
1742986060.8353727,0.0017991942325267273
1742986060.8373258,0.0018116953148478645
1742986060.839279,0.0018136185582818855
1742986060.8412318,0.0018011174759607485
1742986060.843185,0.0018299661274710647
1742986060.8451378,0.0018443904532262228
1742986060.847091,0.0017857315284885798
1742986060.849044,0.001789578015356622
1742986060.850997,0.0017761153113184745
1742986060.85295,0.0017616909855633163
1742986060.8549027,0.0017905396370736324
1742986060.8568559,0.0017924628805076536
1742986060.8588088,0.0017991942325267273
1742986060.860762,0.001780923419903527
1742986060.8627148,0.0017684223375823902
1742986060.864668,0.0017693839592994006
1742986060.866621,0.0016934158436555675
1742986060.868574,0.001660720705277209
1742986060.870527,0.001660720705277209
1742986060.87248,0.0017414969295060949
1742986060.874433,0.0017568828769782636
1742986060.8763857,0.0017482282815251685
1742986060.8783388,0.0018386207229241598
1742986060.880292,0.001831889370905086
1742986060.8822448,0.0017588061204122844
1742986060.884198,0.0017568828769782636
1742986060.8861508,0.0017886163936396114
1742986060.888104,0.0018261196406030224
1742986060.8900568,0.0018559299138303494
1742986060.89201,0.001763614228997337
1742986060.893963,0.0017357271992040314
1742986060.8959157,0.0016511044881071036
1742986060.8978689,0.0016684136790132934
1742986060.8998218,0.001726110982033926
1742986060.901775,0.0017857315284885798
1742986060.9037278,0.001879970456755613
1742986060.905681,0.0018992028910958239
1742986060.907634,0.0019318980294741825
1742986060.909587,0.00189247153907675
1742986060.91154,0.0018366974794901385
1742986060.913493,0.0018107336931308538
1742986060.915446,0.0019049726213978874
1742986060.9173987,0.0019107423516999504
1742986060.9193518,0.0018443904532262228
1742986060.921305,0.0018270812623200332
1742986060.9232578,0.0019174737037190243
1742986060.925211,0.001987672089060794
1742986060.9271638,0.001996326684513889
1742986060.929117,0.0019492072203803723
1742986060.9310699,0.0019059342431148978
1742986060.933023,0.0018809320784726239
1742986060.934976,0.0018761239698875708
1742986060.9369287,0.0018876634304916973
1742986060.9388819,0.00190978072998294
1742986060.9408348,0.0018992028910958239
1742986060.942788,0.0018790088350386024
1742986060.9447408,0.0018790088350386024
1742986060.946694,0.0018588147789813812
1742986060.948647,0.001846313696660244
1742986060.9506,0.0018270812623200332
1742986060.952553,0.0018203499103009594
1742986060.954506,0.0018155418017159067
1742986060.956459,0.0017857315284885798
1742986060.9584117,0.001717456386580831
1742986060.9603648,0.001681876383051441
1742986060.9623177,0.001582829346199355
1742986060.9642708,0.0016616823269942195
1742986060.966224,0.001660720705277209
1742986060.9681768,0.001646296379522051
1742986060.97013,0.0016337952972009138
1742986060.9720829,0.0016251407017478189
1742986060.974036,0.0016934158436555675
1742986060.975989,0.0018540066703963286
1742986060.977942,0.0018309277491880755
1742986060.9798949,0.0018972796476618029
1742986060.9818478,0.0019126655951339716
1742986060.983801,0.0018261196406030224
1742986060.9857538,0.001711686656278768
1742986060.987707,0.0017309190906189787
1742986060.9896598,0.0017741920678844532
1742986060.991613,0.0018097720714138432
1742986060.993566,0.0018107336931308538
1742986060.995519,0.0017828466633375481
1742986060.997472,0.0017751536896014636
1742986060.999425,0.0017626526072803265
1742986061.0013778,0.0017780385547524955
1742986061.0033307,0.0017626526072803265
1742986061.0052838,0.0017251493603169155
1742986061.007237,0.0016943774653725783
1742986061.0091898,0.0017799617981865167
1742986061.011143,0.0018068872062628116
1742986061.0130959,0.0018665077527174655
1742986061.015049,0.0018511218052452967
1742986061.0170019,0.0018520834269623073
1742986061.018955,0.001833812614339107
1742986061.0209079,0.0017549596335442424
1742986061.0228608,0.001747266659808158
1742986061.024814,0.0017184180082978418
1742986061.0267668,0.0017905396370736324
1742986061.02872,0.0017828466633375481
1742986061.0306728,0.0016809147613344305
1742986061.032626,0.0014972450133854168
1742986061.034579,0.00153859474721687
1742986061.036532,0.001747266659808158
1742986061.038485,0.0020328683097602896
1742986061.040438,0.0019107423516999504
1742986061.0423908,0.0018116953148478645
1742986061.0443437,0.001812656936564875
1742986061.0462968,0.0017722688244504322
1742986061.04825,0.001764575850714348
1742986061.0502028,0.0017020704391086626
1742986061.052156,0.0017126482779957783
1742986061.0541089,0.0016636055704282407
1742986061.056062,0.0017001471956746414
1742986061.0580149,0.001728034225467947
1742986061.059968,0.0016847612482024726
1742986061.061921,0.0017328423340529997
1742986061.0638738,0.0016876461133535044
1742986061.065827,0.0014982066351024272
1742986061.0677798,0.0014366628452137523
1742986061.069733,0.0015414796123679015
1742986061.0716858,0.0018270812623200332
1742986061.073639,0.0017857315284885798
1742986061.075592,0.0017068785476937152
1742986061.077545,0.0016587974618431879
1742986061.079498,0.0015337866386318172
1742986061.081451,0.0013741574336080672
1742986061.0834038,0.0014280082497606574
1742986061.0853567,0.0016261023234648295
1742986061.0873098,0.001759767742129295
1742986061.089263,0.0017559212552612528
1742986061.0912158,0.00167995313961742
1742986061.093169,0.0014405093320817945
1742986061.0951219,0.0013693493250230145
1742986061.097075,0.0015068612305555221
1742986061.0990279,0.0018626612658494233
1742986061.100981,0.0019040109996808765
1742986061.1029341,0.0018703542395855078
1742986061.1048868,0.0018280428840370436
1742986061.10684,0.0017761153113184745
1742986061.1087928,0.0017491899032421791
1742986061.110746,0.0017886163936396114
1742986061.1126988,0.0017386120643550632
1742986061.114652,0.0017357271992040314
1742986061.116605,0.001736688820921042
1742986061.118558,0.0016645671921452514
1742986061.120511,0.00164437313608803
1742986061.122464,0.0017241877385999048
1742986061.124417,0.0018222731537349804
1742986061.1263697,0.001819388288583949
1742986061.1283228,0.0017866931502055902
1742986061.1302757,0.001726110982033926
1742986061.1322289,0.0016789915179004095
1742986061.134182,0.0016530277315411248
1742986061.1361349,0.0016578358401261775
1742986061.138088,0.0016357185406349348
1742986061.1400409,0.0016232174583137979
1742986061.141994,0.0015934071850864711
1742986061.1439471,0.0015809061027653338
1742986061.1458998,0.0016232174583137979
1742986061.147853,0.0015857142113503868
1742986061.1498058,0.001511669339140575
1742986061.151759,0.0014135839240054992
1742986061.1537118,0.0013279995911915608
1742986061.155665,0.0012904963442281496
1742986061.1576178,0.0014982066351024272
1742986061.159571,0.0017761153113184745
1742986061.161524,0.001703032060825673
1742986061.163477,0.001660720705277209
1742986061.16543,0.0015934071850864711
1742986061.1673827,0.0015443644775189334
1742986061.1693358,0.0015318633951977962
1742986061.1712887,0.0016578358401261775
1742986061.1732419,0.0017020704391086626
1742986061.175195,0.0014597417664220054
1742986061.1771479,0.0013780039204761092
1742986061.179101,0.0015097460957065538
1742986061.1810539,0.001759767742129295
1742986061.183007,0.0017020704391086626
1742986061.18496,0.0016347569189179242
1742986061.1869128,0.0016837996264854622
1742986061.188866,0.0017463050380911475
1742986061.1908188,0.001676106652749378
1742986061.192772,0.0016405266492199877
1742986061.1947248,0.0016741834093153567
1742986061.196678,0.0017145715214297995
1742986061.1986308,0.0017039936825426836
1742986061.200584,0.0016982239522406203
1742986061.202537,0.0016943774653725783
1742986061.20449,0.0015991769153885342
1742986061.206443,0.0016107163759926607
1742986061.2083957,0.0017001471956746414
1742986061.2103488,0.0018088104496968328
1742986061.2123017,0.0017520747683932106
1742986061.2142549,0.0016684136790132934
1742986061.216208,0.0015780212376143023
1742986061.2181609,0.0015010915002534589
1742986061.220114,0.0014655114967240688
1742986061.2220669,0.001534748260348828
1742986061.22402,0.0016386034057859664
1742986061.225973,0.0016914926002215465
1742986061.227926,0.0016857228699194832
1742986061.229879,0.0015991769153885342
1742986061.2318318,0.0015799444810483234
1742986061.233785,0.0016241790800308085
1742986061.2357378,0.001690530978504536
1742986061.237691,0.0016972623305236097
1742986061.2396438,0.0016241790800308085
1742986061.241597,0.0015107077174235642
1742986061.24355,0.00148570555278129
1742986061.245503,0.001582829346199355
1742986061.247456,0.0016280255668988505
1742986061.249409,0.0015039763654044905
1742986061.2513618,0.0013751190553250774
1742986061.2533147,0.0014462790623838578
1742986061.2552679,0.0015751363724632707
1742986061.2572207,0.0017011088173916518
1742986061.2591739,0.001643411514371019
1742986061.261127,0.0016357185406349348
1742986061.26308,0.001703032060825673
1742986061.265033,0.0016357185406349348
1742986061.266986,0.0015895606982184289
1742986061.268939,0.001547249342669965
1742986061.2708917,0.0015395563689338807
1742986061.2728448,0.0015376331254998595
1742986061.274798,0.0016530277315411248
1742986061.2767508,0.0017568828769782636
1742986061.278704,0.0017338039557700106
1742986061.2806568,0.0017203412517318628
1742986061.28261,0.0016722601658813356
1742986061.2845628,0.001570328263878218
1742986061.286516,0.001488590417932322
1742986061.288469,0.0014443558189498366
1742986061.290422,0.001471281227026132
1742986061.2923748,0.00139723635481632
1742986061.2943277,0.001494360148234385
1742986061.2962809,0.0017001471956746414
1742986061.2982337,0.0019992115496649207
1742986061.3001869,0.0018818937001896343
1742986061.30214,0.0018078488279798224
1742986061.304093,0.001711686656278768
1742986061.306046,0.0016963007088065991
1742986061.307999,0.0016722601658813356
1742986061.309952,0.001673221787598346
1742986061.3119047,0.001612639619426682
1742986061.3138578,0.0016049466456905977
1742986061.315811,0.0015837909679163656
1742986061.3177638,0.0015809061027653338
1742986061.319717,0.001549172586103986
1742986061.3216698,0.0015184006911596484
1742986061.323623,0.0015943688068034815
1742986061.3255758,0.0016309104320498822
1742986061.327529,0.001529940151763775
1742986061.329482,0.0014453174406668474
1742986061.331435,0.0014558952795539631
1742986061.3333879,0.0015462877209529542
1742986061.3353407,0.0016212942148797769
1742986061.3372939,0.0016491812446730826
1742986061.3392467,0.001578982859331313
1742986061.3411999,0.0015087844739895431
1742986061.343153,0.0015058996088385115
1742986061.345106,0.0015251320431787223
1742986061.347059,0.0016039850239735868
1742986061.349012,0.0016280255668988505
1742986061.350965,0.0016472580012390613
1742986061.352918,0.001612639619426682
1742986061.3548708,0.0016366801623519456
1742986061.356824,0.001578982859331313
1742986061.3587768,0.0015568655598400703
1742986061.36073,0.0015905223199354395
1742986061.3626828,0.0015462877209529542
1742986061.364636,0.0013395390517956874
1742986061.3665888,0.0012972276962472235
1742986061.368542,0.0015520574512550176
1742986061.370495,0.001728034225467947
1742986061.372448,0.001764575850714348
1742986061.374401,0.0017616909855633163
1742986061.3763537,0.0017501515249591898
1742986061.3783069,0.0017001471956746414
1742986061.3802598,0.0016472580012390613
1742986061.3822129,0.001553019072972028
1742986061.384166,0.0014905136613663427
1742986061.386119,0.0015453260992359438
1742986061.388072,0.0015751363724632707
1742986061.390025,0.0015212855563106803
1742986061.391978,0.0014866671744983007
1742986061.393931,0.0015357098820658385
1742986061.3958838,0.0016943774653725783
1742986061.3978367,0.0017713072027334216
1742986061.3997898,0.0017193796300148522
1742986061.401743,0.0016261023234648295
1742986061.4036958,0.0015972536719545134
1742986061.405649,0.0015857142113503868
1742986061.4076018,0.0015443644775189334
1742986061.409555,0.0014732044704601531
1742986061.411508,0.0014433941972328262
1742986061.413461,0.0015578271815570807
1742986061.415414,0.001673221787598346
1742986061.4173667,0.0015414796123679015
1742986061.4193199,0.0015328250169148068
1742986061.4212728,0.0014347396017797313
1742986061.4232259,0.0013808887856271409
1742986061.4251788,0.0014318547366286996
1742986061.427132,0.0015357098820658385
1742986061.429085,0.0015684050204441968
1742986061.431038,0.0015462877209529542
1742986061.432991,0.0016482196229560722
1742986061.434944,0.0016049466456905977
1742986061.4368968,0.00155590393812306
1742986061.4388497,0.001336654186644656
1742986061.4408028,0.0013183833740214555
1742986061.442756,0.0013472320255317716
1742986061.4447088,0.0015539806946890387
1742986061.446662,0.0015376331254998595
1742986061.4486148,0.0015655201552931652
1742986061.450568,0.0014905136613663427
1742986061.4525208,0.0015184006911596484
1742986061.454474,0.0014549336578369527
1742986061.456427,0.0013818504073441513
1742986061.4583797,0.0015510958295380072
1742986061.4603329,0.001676106652749378
1742986061.4622858,0.0018174650451499277
1742986061.464239,0.001717456386580831
1742986061.4661918,0.001667452057296283
1742986061.468145,0.0016770682744663883
1742986061.470098,0.00164437313608803
1742986061.472051,0.0016193709714457556
1742986061.474004,0.001602061780539566
1742986061.475957,0.0015866758330673972
1742986061.47791,0.0015549423164060493
1742986061.4798627,0.0015366715037828489
1742986061.4818158,0.0016251407017478189
1742986061.483769,0.001667452057296283
1742986061.4857218,0.001553019072972028
1742986061.487675,0.0014578185229879843
1742986061.4896278,0.001409737437137457
1742986061.491581,0.0014405093320817945
1742986061.4935338,0.0014539720361199423
1742986061.495487,0.0014866671744983007
1742986061.49744,0.0014732044704601531
1742986061.499393,0.0016203325931627662
1742986061.5013459,0.0015087844739895431
1742986061.5032988,0.001524170421461712
1742986061.505252,0.0014607033881390158
1742986061.5072048,0.0014953217699513954
1742986061.509158,0.0014549336578369527
1742986061.511111,0.0014655114967240688
1742986061.513064,0.0017943861239416747
1742986061.515017,0.001823234775451991
1742986061.51697,0.0017684223375823902
1742986061.518923,0.001726110982033926
1742986061.5208757,0.0017309190906189787
1742986061.5228288,0.0016011001588225554
1742986061.524782,0.0015001298785364485
1742986061.5267348,0.0014828206876302584
1742986061.528688,0.0015934071850864711
1742986061.5306408,0.0017088017911277363
1742986061.532594,0.0018222731537349804
1742986061.5345469,0.0017511131466762002
1742986061.5365,0.0017501515249591898
1742986061.538453,0.0016664904355792722
1742986061.540406,0.0016212942148797769
1742986061.5423589,0.0016616823269942195
1742986061.5443118,0.0016453347578050403
1742986061.546265,0.0015760979941802811
1742986061.5482178,0.0015684050204441968
1742986061.550171,0.0015501342078209964
1742986061.5521238,0.0013635795947209513
1742986061.554077,0.0010135492897291132
1742986061.55603,0.0009596984735765227
1742986061.557983,0.0013626179730039404
1742986061.559936,0.001812656936564875
1742986061.5618887,0.001915550460285003
1742986061.5638418,0.0018597764006983916
1742986061.5657947,0.0017107250345617575
1742986061.5677478,0.0016241790800308085
1742986061.569701,0.0015809061027653338
1742986061.5716538,0.001526093664895733
1742986061.573607,0.0015395563689338807
1742986061.5755599,0.0015799444810483234
1742986061.577513,0.001464549875007058
1742986061.5794659,0.0013453087820977508
1742986061.581419,0.0013895433810802358
1742986061.5833719,0.0014232001411756047
1742986061.5853248,0.0014308931149116892
1742986061.587278,0.0014953217699513954
1742986061.5892308,0.0017251493603169155
1742986061.591184,0.0019213201905870665
1742986061.5931368,0.0017501515249591898
1742986061.59509,0.0016616823269942195
1742986061.597043,0.0015962920502375025
1742986061.598996,0.0016626439487112301
1742986061.600949,0.0016011001588225554
1742986061.602902,0.0015905223199354395
1742986061.6048548,0.0015693666421612072
1742986061.6068077,0.0015251320431787223
1742986061.6087608,0.0015184006911596484
1742986061.610714,0.0016289871886158611
1742986061.6126668,0.00160879313255864
1742986061.61462,0.001578982859331313
1742986061.6165729,0.0014616650098560266
1742986061.618526,0.0015953304285204921
1742986061.6204789,0.0016828380047684518
1742986061.622432,0.0015357098820658385
1742986061.624385,0.0015885990765014183
1742986061.6263378,0.0015760979941802811
1742986061.628291,0.0015732131290292495
1742986061.6302438,0.0015212855563106803
1742986061.632197,0.0015270552866127436
1742986061.6341498,0.0016203325931627662
1742986061.636103,0.0014472406841008684
1742986061.638056,0.0013010741831152657
1742986061.640009,0.001161639034148737
1742986061.641962,0.0012414536366606118
1742986061.643915,0.0014808974441962374
1742986061.6458678,0.0017184180082978418
1742986061.6478207,0.0018184266668669381
1742986061.6497738,0.0018299661274710647
1742986061.651727,0.0017866931502055902
1742986061.6536798,0.0017386120643550632
1742986061.655633,0.0017039936825426836
1742986061.6575859,0.0016539893532581352
1742986061.659539,0.0015482109643869754
1742986061.6614919,0.001418392032590552
1742986061.663445,0.0013895433810802358
1742986061.6653981,0.001391466624514257
1742986061.6673508,0.0011837563336399794
1742986061.669304,0.001572251507312239
1742986061.6712568,0.0014549336578369527
1742986061.67321,0.0017232261168828944
1742986061.6751628,0.0018145801799988959
1742986061.677116,0.0016318720537668926
1742986061.679069,0.001517439069442638
1742986061.681022,0.0014385860886477735
1742986061.682975,0.0016357185406349348
1742986061.684928,0.0017616909855633163
1742986061.6868808,0.0017020704391086626
1742986061.6888337,0.0016655288138622618
1742986061.6907868,0.0016155244845777134
1742986061.6927397,0.0017530363901102212
1742986061.6946929,0.001690530978504536
1742986061.696646,0.0014982066351024272
1742986061.6985989,0.0015357098820658385
1742986061.700552,0.0015424412340849121
1742986061.7025049,0.0015289785300467646
1742986061.704458,0.0015626352901421338
1742986061.7064111,0.0016780298961833987
1742986061.7083638,0.0016539893532581352
1742986061.710317,0.0016222558365967873
1742986061.7122698,0.0014982066351024272
1742986061.714223,0.0015010915002534589
1742986061.7161758,0.0017020704391086626
1742986061.718129,0.0016318720537668926
1742986061.7200818,0.0014030060851183835
1742986061.722035,0.0015164774477256276
1742986061.723988,0.0013491552689657929
1742986061.725941,0.0012414536366606118
1742986061.727894,0.0010375898326543767
1742986061.7298467,0.0009837390165017862
1742986061.7317998,0.0011914493073760639
1742986061.7337527,0.0017011088173916518
1742986061.7357059,0.0019030493779638661
1742986061.737659,0.0018136185582818855
1742986061.7396119,0.0017039936825426836
1742986061.741565,0.001787654771922601
1742986061.7435179,0.0016587974618431879
1742986061.745471,0.0016789915179004095
1742986061.747424,0.0016559125966921565
1742986061.749377,0.0015693666421612072
1742986061.75133,0.0013626179730039404
1742986061.7532828,0.001329922834625582
1742986061.755236,0.0014068525719864256
1742986061.7571888,0.0017414969295060949
1742986061.759142,0.0017184180082978418
1742986061.7610948,0.001734765577487021
1742986061.763048,0.0016001385371055448
1742986061.765001,0.0015924455633694603
1742986061.766954,0.0016232174583137979
1742986061.768907,0.0016366801623519456
1742986061.7708597,0.0016193709714457556
1742986061.7728128,0.0016107163759926607
1742986061.7747657,0.0015337866386318172
1742986061.7767189,0.0015068612305555221
1742986061.778672,0.0015068612305555221
1742986061.7806249,0.001570328263878218
1742986061.782578,0.0016568742184091669
1742986061.7845309,0.0015578271815570807
1742986061.786484,0.0015328250169148068
1742986061.788437,0.0015395563689338807
1742986061.79039,0.001534748260348828
1742986061.792343,0.0014837823093472688
1742986061.7942958,0.0014655114967240688
1742986061.796249,0.0013693493250230145
1742986061.7982018,0.001428969871477668
1742986061.800155,0.001405890950269415
1742986061.8021078,0.0014241617628926154
1742986061.804061,0.001488590417932322
1742986061.806014,0.0016712985441643252
1742986061.807967,0.0016568742184091669
1742986061.80992,0.0015587888032740915
1742986061.8118727,0.0014597417664220054
1742986061.8138258,0.0014212768977415835
1742986061.8157787,0.001553019072972028
1742986061.8177319,0.0016039850239735868
1742986061.819685,0.0016982239522406203
1742986061.8216379,0.0016972623305236097
1742986061.823591,0.0017088017911277363
1742986061.8255439,0.0017559212552612528
1742986061.827497,0.0016482196229560722
1742986061.82945,0.001570328263878218
1742986061.831403,0.0015549423164060493
1742986061.8333557,0.0016568742184091669
1742986061.8353088,0.001572251507312239
1742986061.837262,0.001511669339140575
1742986061.8392148,0.0014962833916684062
1742986061.841168,0.001559750424991102
1742986061.8431208,0.001602061780539566
1742986061.845074,0.0014222385194585943
1742986061.8470268,0.0012578012058497912
1742986061.84898,0.0013578098644188878
1742986061.850933,0.0015818677244823446
1742986061.852886,0.001770345581016411
1742986061.8548388,0.0017539980118272318
1742986061.8567917,0.0017732304461674428
1742986061.8587449,0.0016847612482024726
1742986061.8606977,0.0016712985441643252
1742986061.8626509,0.0016549509749751456
1742986061.864604,0.0016318720537668926
1742986061.866557,0.0016136012411436926
1742986061.86851,0.0015972536719545134
1742986061.870463,0.0015510958295380072
1742986061.872416,0.0014078141937034362
1742986061.874369,0.001312613643719392
1742986061.8763218,0.0013885817593632251
1742986061.878275,0.001578982859331313
1742986061.8802278,0.0015424412340849121
1742986061.882181,0.0015770596158972917
1742986061.8841338,0.001759767742129295
1742986061.886087,0.0017857315284885798
1742986061.8880398,0.0017434201729401159
1742986061.889993,0.0016414882709369983
1742986061.891946,0.001690530978504536
1742986061.893899,0.0016684136790132934
1742986061.8958519,0.0016386034057859664
1742986061.8978047,0.0016193709714457556
1742986061.8997579,0.00159148394165245
1742986061.9017107,0.0015770596158972917
1742986061.9036639,0.0015674433987271864
1742986061.905617,0.0015655201552931652
1742986061.90757,0.0015818677244823446
1742986061.909523,0.0015895606982184289
1742986061.911476,0.0016241790800308085
1742986061.913429,0.0016337952972009138
1742986061.915382,0.0016251407017478189
1742986061.9173348,0.0016155244845777134
1742986061.919288,0.0015184006911596484
1742986061.9212408,0.0014828206876302584
1742986061.923194,0.0014953217699513954
1742986061.9251468,0.0014837823093472688
1742986061.9271,0.0015799444810483234
1742986061.9290528,0.0015549423164060493
1742986061.931006,0.0015520574512550176
1742986061.932959,0.001607831510841629
1742986061.934912,0.0016934158436555675
1742986061.9368649,0.0016934158436555675
1742986061.9388177,0.0015760979941802811
1742986061.9407709,0.0014732044704601531
1742986061.9427238,0.0014347396017797313
1742986061.9446769,0.001403967706835394
1742986061.94663,0.0016664904355792722
1742986061.948583,0.001713609899712789
1742986061.950536,0.001728034225467947
1742986061.952489,0.0017232261168828944
1742986061.954442,0.0016039850239735868
1742986061.956395,0.0015164774477256276
1742986061.9583478,0.0015251320431787223
1742986061.9603007,0.0016222558365967873
1742986061.9622538,0.001842467209792202
1742986061.964207,0.0017530363901102212
1742986061.9661598,0.001643411514371019
1742986061.968113,0.0016203325931627662
1742986061.9700658,0.0016424498926540087
1742986061.972019,0.0017068785476937152
1742986061.973972,0.0016636055704282407
1742986061.975925,0.0015934071850864711
1742986061.977878,0.00167995313961742
1742986061.9798307,0.0016366801623519456
1742986061.9817839,0.0015510958295380072
1742986061.9837368,0.0015058996088385115
1742986061.9856899,0.0015799444810483234
1742986061.9876428,0.0016164861062947242
1742986061.989596,0.0016280255668988505
1742986061.991549,0.0016174477280117346
1742986061.993502,0.0016241790800308085
1742986061.995455,0.0015760979941802811
1742986061.997408,0.0014462790623838578
1742986061.999361,0.0014001212199673517
1742986062.0013137,0.0012866498573601076
1742986062.0032668,0.0013664644598719827
1742986062.00522,0.0015318633951977962
1742986062.0071728,0.0018136185582818855
1742986062.009126,0.0018722774830195286
1742986062.0110788,0.001789578015356622
1742986062.013032,0.0016722601658813356
1742986062.0149848,0.0016039850239735868
1742986062.016938,0.0015684050204441968
1742986062.018891,0.0014982066351024272
1742986062.0208437,0.0014308931149116892
1742986062.0227969,0.001452048792685921
1742986062.0247498,0.0015876374547844076
1742986062.026703,0.0016847612482024726
1742986062.0286558,0.00153859474721687
1742986062.030609,0.0014376244669307631
1742986062.032562,0.0015780212376143023
1742986062.034515,0.00190978072998294
1742986062.036468,0.0018347742360561175
1742986062.038421,0.0017616909855633163
1742986062.040374,0.0017491899032421791
1742986062.0423267,0.0017145715214297995
1742986062.0442798,0.0017097634128447469
1742986062.046233,0.001676106652749378
1742986062.0481858,0.00160879313255864
1742986062.050139,0.0015626352901421338
1742986062.0520918,0.0015424412340849121
1742986062.054045,0.0015635969118591442
1742986062.0559978,0.001667452057296283
1742986062.057951,0.0015780212376143023
1742986062.059904,0.0014501255492519
1742986062.0618567,0.0014347396017797313
1742986062.0638099,0.0016155244845777134
1742986062.0657628,0.0016645671921452514
1742986062.067716,0.0016539893532581352
1742986062.0696688,0.001643411514371019
1742986062.071622,0.0016963007088065991
1742986062.073575,0.0017588061204122844
1742986062.075528,0.0017059169259767048
1742986062.077481,0.0017088017911277363
1742986062.079434,0.001673221787598346
1742986062.081387,0.001637641784068956
1742986062.0833397,0.0016357185406349348
1742986062.0852928,0.0016328336754839034
1742986062.087246,0.001515515826008617
1742986062.0891988,0.0013501168906828035
1742986062.091152,0.0010943255139579991
1742986062.0931048,0.0010693233493157246
1742986062.095058,0.0014405093320817945
1742986062.0970109,0.001612639619426682
1742986062.098964,0.001559750424991102
1742986062.100917,0.0015876374547844076
1742986062.10287,0.0016963007088065991
1742986062.1048229,0.0018357358577731281
1742986062.1067758,0.00155590393812306
1742986062.108729,0.0013606947295699194
1742986062.1106818,0.0013751190553250774
1742986062.112635,0.00159148394165245
1742986062.114588,0.0017443817946571263
1742986062.116541,0.001867469374434476
1742986062.118494,0.001837659101207149
1742986062.120447,0.0018636228875664339
1742986062.1224,0.0017972709890927063
1742986062.124353,0.0017549596335442424
1742986062.1263058,0.0016001385371055448
1742986062.1282587,0.0015674433987271864
1742986062.1302118,0.001681876383051441
1742986062.132165,0.0016626439487112301
1742986062.1341178,0.0016261023234648295
1742986062.136071,0.0016280255668988505
1742986062.1380239,0.0015674433987271864
1742986062.139977,0.0015510958295380072
1742986062.1419299,0.0015674433987271864
1742986062.143883,0.00159148394165245
1742986062.1458359,0.0016212942148797769
1742986062.1477888,0.0015991769153885342
1742986062.149742,0.0015991769153885342
1742986062.1516948,0.001605908267407608
1742986062.153648,0.001602061780539566
1742986062.1556008,0.0016011001588225554
1742986062.157554,0.0016222558365967873
1742986062.159507,0.0016309104320498822
1742986062.16146,0.0016184093497287452
1742986062.163413,0.0015876374547844076
1742986062.165366,0.0015318633951977962
1742986062.1673188,0.001418392032590552
1742986062.1692717,0.0012693406664539178
1742986062.1712248,0.0011500995735446104
1742986062.173178,0.0012703022881709284
1742986062.1751308,0.001793424502224664
1742986062.177084,0.001972286141588625
1742986062.1790369,0.0017693839592994006
1742986062.18099,0.0015328250169148068
1742986062.1829429,0.001372234190174046
1742986062.184896,0.0014703196053091215
1742986062.1868489,0.0016943774653725783
1742986062.1888018,0.0015991769153885342
1742986062.190755,0.0014020444634013727
1742986062.1927078,0.0015328250169148068
1742986062.194661,0.0016097547542756503
1742986062.1966138,0.001646296379522051
1742986062.198567,0.0015020531219704695
1742986062.20052,0.0013789655421931198
1742986062.202473,0.0014260850063266366
1742986062.204426,0.0016309104320498822
1742986062.206379,0.0018540066703963286
1742986062.2083318,0.0017616909855633163
1742986062.2102847,0.0016107163759926607
1742986062.2122378,0.0015799444810483234
1742986062.214191,0.0016491812446730826
1742986062.2161438,0.0016847612482024726
1742986062.218097,0.0015885990765014183
1742986062.2200499,0.0015741747507462603
1742986062.222003,0.001488590417932322
1742986062.2239559,0.0015309017734807858
1742986062.225909,0.0015039763654044905
1742986062.2278621,0.0015760979941802811
1742986062.2298148,0.00139723635481632
1742986062.231768,0.0011712552513188422
1742986062.2337208,0.0010250887503332397
1742986062.235674,0.0012953044528132025
1742986062.2376268,0.0015962920502375025
1742986062.23958,0.0018876634304916973
1742986062.241533,0.001800155854243738
1742986062.243486,0.00167995313961742
1742986062.245439,0.001643411514371019
1742986062.247392,0.0015972536719545134
1742986062.249345,0.001602061780539566
1742986062.2512977,0.0014135839240054992
1742986062.2532508,0.0013645412164379619
1742986062.2552037,0.001458780144704995
1742986062.2571568,0.0016587974618431879
1742986062.25911,0.0016212942148797769
1742986062.2610629,0.0014924369048003642
1742986062.263016,0.0016241790800308085
1742986062.2649689,0.0016472580012390613
1742986062.266922,0.0015328250169148068
1742986062.2688751,0.0013405006735126982
1742986062.2708278,0.001331846078059603
1742986062.272781,0.0014568569012709737
1742986062.2747338,0.0015876374547844076
1742986062.276687,0.0017443817946571263
1742986062.2786398,0.0016655288138622618
1742986062.280593,0.0015751363724632707
1742986062.2825458,0.001529940151763775
1742986062.284499,0.0014414709537988052
1742986062.286452,0.0014212768977415835
1742986062.288405,0.0014847439310642797
1742986062.290358,0.00153859474721687
1742986062.2923107,0.0016414882709369983
1742986062.2942638,0.001578982859331313
1742986062.2962167,0.0015510958295380072
1742986062.2981699,0.0014703196053091215
1742986062.300123,0.0013635795947209513
1742986062.3020759,0.0012626093144348439
1742986062.304029,0.0011491379518275998
1742986062.3059819,0.0013414622952297086
1742986062.307935,0.0016049466456905977
1742986062.309888,0.0018366974794901385
1742986062.3118408,0.0017511131466762002
1742986062.313794,0.0016722601658813356
1742986062.3157468,0.0014914752830833533
1742986062.3177,0.0013029974265492867
1742986062.3196528,0.0013578098644188878
1742986062.321606,0.0015318633951977962
1742986062.3235588,0.0015626352901421338
1742986062.325512,0.0016136012411436926
1742986062.327465,0.001614562862860703
1742986062.329418,0.0016616823269942195
1742986062.331371,0.0016405266492199877
1742986062.3333237,0.0015645585335761546
1742986062.3352768,0.001488590417932322
1742986062.3372297,0.0014683963618751003
1742986062.3391829,0.0015857142113503868
1742986062.341136,0.0015078228522725327
1742986062.3430889,0.0014751277138941741
1742986062.345042,0.0015010915002534589
1742986062.3469949,0.0015020531219704695
1742986062.348948,0.0014539720361199423
1742986062.350901,0.0014664731184410792
1742986062.352854,0.0014597417664220054
1742986062.354807,0.0014568569012709737
1742986062.3567598,0.0012231828240374116
1742986062.358713,0.0011327903826384206
1742986062.3606658,0.001275110396755981
1742986062.362619,0.0015482109643869754
1742986062.3645718,0.001780923419903527
1742986062.366525,0.0016645671921452514
1742986062.368478,0.001669375300730304
1742986062.370431,0.0016261023234648295
1742986062.372384,0.0015982152936715238
1742986062.374337,0.0015741747507462603
1742986062.3762898,0.0015934071850864711
1742986062.3782427,0.0016136012411436926
1742986062.3801959,0.0015943688068034815
1742986062.382149,0.0015809061027653338
1742986062.3841019,0.0015453260992359438
1742986062.386055,0.0015039763654044905
1742986062.3880079,0.0013799271639101305
1742986062.389961,0.0013414622952297086
1742986062.391914,0.0014722428487431423
1742986062.393867,0.0015626352901421338
1742986062.3958197,0.0015635969118591442
1742986062.3977728,0.00162706394518184
1742986062.399726,0.0015924455633694603
1742986062.4016788,0.0015145542042916064
1742986062.403632,0.0015270552866127436
1742986062.4055848,0.0015578271815570807
1742986062.407538,0.0015030147436874799
1742986062.409491,0.0014222385194585943
1742986062.411444,0.0013885817593632251
1742986062.413397,0.0015366715037828489
1742986062.41535,0.0015270552866127436
1742986062.4173028,0.0015462877209529542
1742986062.4192557,0.0014837823093472688
1742986062.4212089,0.0013626179730039404
1742986062.4231617,0.0014308931149116892
1742986062.4251149,0.0016039850239735868
1742986062.427068,0.0017270726037509367
1742986062.429021,0.001669375300730304
1742986062.430974,0.0015741747507462603
1742986062.432927,0.0015309017734807858
1742986062.43488,0.0015434028558019227
1742986062.4368327,0.0015078228522725327
1742986062.4387858,0.0015684050204441968
1742986062.440739,0.0015770596158972917
1742986062.4426918,0.0015135925825745958
1742986062.444645,0.0014847439310642797
1742986062.4465978,0.0014732044704601531
1742986062.448551,0.0014866671744983007
1742986062.4505038,0.0014664731184410792
1742986062.452457,0.0013731958118910566
1742986062.45441,0.0013453087820977508
1742986062.456363,0.0015309017734807858
1742986062.4583158,0.001681876383051441
1742986062.4602687,0.001614562862860703
1742986062.4622219,0.0015626352901421338
1742986062.4641747,0.001681876383051441
1742986062.4661279,0.0017491899032421791
1742986062.468081,0.001676106652749378
1742986062.470034,0.0016703369224473144
1742986062.471987,0.0016789915179004095
1742986062.47394,0.0016424498926540087
1742986062.475893,0.00160879313255864
1742986062.477846,0.0015837909679163656
1742986062.4797988,0.001582829346199355
1742986062.481752,0.0016184093497287452
1742986062.4837048,0.0017059169259767048
1742986062.485658,0.0017357271992040314
1742986062.4876108,0.0016472580012390613
1742986062.489564,0.0015107077174235642
1742986062.4915168,0.0014491639275348897
1742986062.49347,0.0015934071850864711
1742986062.495423,0.0017818850416205375
1742986062.497376,0.0018107336931308538
1742986062.499329,0.001789578015356622
1742986062.5012817,0.0017982326108097167
1742986062.5032349,0.0018068872062628116
1742986062.5051877,0.0018088104496968328
1742986062.5071409,0.0017799617981865167
1742986062.509094,0.0017501515249591898
1742986062.511047,0.0017001471956746414
1742986062.513,0.00167995313961742
1742986062.514953,0.0016780298961833987
1742986062.516906,0.0016664904355792722
1742986062.518859,0.0016703369224473144
1742986062.5208118,0.0016116779977096713
1742986062.5227647,0.001582829346199355
1742986062.5247178,0.0015664817770101758
1742986062.526671,0.0015809061027653338
1742986062.5286238,0.0015943688068034815
1742986062.530577,0.001559750424991102
1742986062.5325298,0.0015934071850864711
1742986062.534483,0.0016712985441643252
1742986062.536436,0.0017164947648638205
1742986062.538389,0.001736688820921042
1742986062.540342,0.0017463050380911475
1742986062.5422947,0.0017357271992040314
1742986062.5442479,0.0017020704391086626
1742986062.5462008,0.001614562862860703
1742986062.5481539,0.0014972450133854168
1742986062.5501068,0.0014087758154204466
1742986062.55206,0.0015376331254998595
1742986062.554013,0.0017790001764695059
1742986062.555966,0.001722264495165884
1742986062.557919,0.0016828380047684518
1742986062.559872,0.001759767742129295
1742986062.5618248,0.001780923419903527
1742986062.5637777,0.001812656936564875
1742986062.5657308,0.0018097720714138432
1742986062.567684,0.001759767742129295
1742986062.5696368,0.0018030407193947693
1742986062.57159,0.0017818850416205375
1742986062.5735428,0.001764575850714348
1742986062.575496,0.0017588061204122844
1742986062.5774488,0.0017761153113184745
1742986062.579402,0.0017616909855633163
1742986062.581355,0.001736688820921042
1742986062.5833077,0.0017289958471849575
1742986062.5852609,0.001736688820921042
1742986062.5872138,0.0017684223375823902
1742986062.5891669,0.0017693839592994006
1742986062.5911198,0.0017482282815251685
1742986062.593073,0.0017020704391086626
1742986062.595026,0.0016770682744663883
1742986062.596979,0.0016578358401261775
1742986062.598932,0.0017270726037509367
1742986062.600885,0.0017549596335442424
1742986062.602838,0.0017905396370736324
1742986062.6047907,0.0017722688244504322
1742986062.6067438,0.0017395736860720736
1742986062.608697,0.001734765577487021
1742986062.6106498,0.0016914926002215465
1742986062.612603,0.0016636055704282407
